timestamp,Channel 1,Channel 2,Channel 3,Channel 4,Channel 5,Channel 6
1717675126269,12.0000000000,0.0000000000,0.0000000000,44.0000000000,63.0000000000,0.0000000000
1717675126269,12.0000000000,0.0000000000,0.0000000000,44.0000000000,63.0000000000,1.0000000000
1717675126270,15.0000000000,0.0000000000,0.0000000000,44.0000000000,63.0000000000,1.0000000000
1717675126270,14.0000000000,0.0000000000,0.0000000000,43.0000000000,63.0000000000,0.0000000000
1717675126270,14.0000000000,0.0000000000,0.0000000000,43.0000000000,63.0000000000,0.0000000000
1717675126270,14.0000000000,0.0000000000,0.0000000000,43.0000000000,63.0000000000,0.0000000000
1717675126270,14.0000000000,0.0000000000,0.0000000000,42.0000000000,62.0000000000,0.0000000000
1717675126270,14.0000000000,0.0000000000,0.0000000000,42.0000000000,62.0000000000,0.0000000000
1717675126270,14.0000000000,0.0000000000,0.0000000000,42.0000000000,62.0000000000,0.0000000000
1717675126270,14.0000000000,0.0000000000,0.0000000000,41.0000000000,61.0000000000,0.0000000000
1717675126270,14.0000000000,0.0000000000,0.0000000000,41.0000000000,62.0000000000,0.0000000000
1717675126270,14.0000000000,0.0000000000,0.0000000000,41.0000000000,61.0000000000,0.0000000000
1717675126271,13.0000000000,0.0000000000,0.0000000000,41.0000000000,61.0000000000,0.0000000000
1717675126271,14.0000000000,0.0000000000,0.0000000000,41.0000000000,61.0000000000,0.0000000000
1717675126271,14.0000000000,0.0000000000,0.0000000000,39.0000000000,60.0000000000,0.0000000000
1717675126271,14.0000000000,0.0000000000,0.0000000000,39.0000000000,60.0000000000,0.0000000000
1717675126271,13.0000000000,0.0000000000,0.0000000000,40.0000000000,60.0000000000,0.0000000000
1717675126271,14.0000000000,0.0000000000,0.0000000000,39.0000000000,60.0000000000,0.0000000000
1717675126271,14.0000000000,0.0000000000,0.0000000000,39.0000000000,60.0000000000,0.0000000000
1717675126271,14.0000000000,0.0000000000,0.0000000000,39.0000000000,59.0000000000,0.0000000000
1717675126271,14.0000000000,0.0000000000,0.0000000000,39.0000000000,59.0000000000,0.0000000000
1717675126271,14.0000000000,0.0000000000,0.0000000000,39.0000000000,59.0000000000,0.0000000000
1717675126272,14.0000000000,0.0000000000,0.0000000000,39.0000000000,59.0000000000,0.0000000000
1717675126272,14.0000000000,0.0000000000,0.0000000000,39.0000000000,59.0000000000,0.0000000000
1717675126286,14.0000000000,0.0000000000,0.0000000000,39.0000000000,57.0000000000,0.0000000000
1717675126287,14.0000000000,0.0000000000,0.0000000000,39.0000000000,58.0000000000,0.0000000000
1717675126287,14.0000000000,0.0000000000,0.0000000000,39.0000000000,57.0000000000,0.0000000000
1717675126287,13.0000000000,0.0000000000,0.0000000000,39.0000000000,57.0000000000,0.0000000000
1717675126287,13.0000000000,0.0000000000,0.0000000000,39.0000000000,57.0000000000,0.0000000000
1717675126287,14.0000000000,0.0000000000,0.0000000000,38.0000000000,57.0000000000,0.0000000000
1717675126287,13.0000000000,0.0000000000,0.0000000000,38.0000000000,56.0000000000,0.0000000000
1717675126288,14.0000000000,0.0000000000,0.0000000000,38.0000000000,56.0000000000,0.0000000000
1717675126288,14.0000000000,0.0000000000,0.0000000000,38.0000000000,56.0000000000,0.0000000000
1717675126288,14.0000000000,0.0000000000,0.0000000000,37.0000000000,56.0000000000,0.0000000000
1717675126288,14.0000000000,0.0000000000,0.0000000000,37.0000000000,56.0000000000,0.0000000000
1717675126288,14.0000000000,0.0000000000,0.0000000000,37.0000000000,56.0000000000,0.0000000000
1717675126304,14.0000000000,0.0000000000,0.0000000000,36.0000000000,56.0000000000,0.0000000000
1717675126305,14.0000000000,0.0000000000,0.0000000000,36.0000000000,56.0000000000,0.0000000000
1717675126305,13.0000000000,0.0000000000,0.0000000000,36.0000000000,55.0000000000,0.0000000000
1717675126305,13.0000000000,0.0000000000,0.0000000000,36.0000000000,55.0000000000,0.0000000000
1717675126305,14.0000000000,0.0000000000,0.0000000000,36.0000000000,54.0000000000,0.0000000000
1717675126305,13.0000000000,0.0000000000,0.0000000000,36.0000000000,55.0000000000,0.0000000000
1717675126305,13.0000000000,0.0000000000,0.0000000000,35.0000000000,54.0000000000,0.0000000000
1717675126305,13.0000000000,0.0000000000,0.0000000000,35.0000000000,54.0000000000,0.0000000000
1717675126305,12.0000000000,0.0000000000,0.0000000000,35.0000000000,54.0000000000,0.0000000000
1717675126306,13.0000000000,0.0000000000,0.0000000000,35.0000000000,54.0000000000,0.0000000000
1717675126306,13.0000000000,0.0000000000,1.0000000000,35.0000000000,53.0000000000,0.0000000000
1717675126306,14.0000000000,0.0000000000,0.0000000000,35.0000000000,53.0000000000,0.0000000000
1717675126328,13.0000000000,0.0000000000,0.0000000000,35.0000000000,52.0000000000,0.0000000000
1717675126329,13.0000000000,0.0000000000,0.0000000000,35.0000000000,52.0000000000,0.0000000000
1717675126329,14.0000000000,0.0000000000,0.0000000000,34.0000000000,52.0000000000,0.0000000000
1717675126329,13.0000000000,0.0000000000,0.0000000000,34.0000000000,52.0000000000,0.0000000000
1717675126329,12.0000000000,0.0000000000,0.0000000000,34.0000000000,51.0000000000,0.0000000000
1717675126330,13.0000000000,0.0000000000,0.0000000000,34.0000000000,52.0000000000,0.0000000000
1717675126330,13.0000000000,0.0000000000,0.0000000000,34.0000000000,51.0000000000,0.0000000000
1717675126330,13.0000000000,0.0000000000,0.0000000000,34.0000000000,51.0000000000,0.0000000000
1717675126331,13.0000000000,0.0000000000,0.0000000000,33.0000000000,51.0000000000,0.0000000000
1717675126331,13.0000000000,0.0000000000,0.0000000000,33.0000000000,51.0000000000,0.0000000000
1717675126331,13.0000000000,0.0000000000,0.0000000000,33.0000000000,51.0000000000,0.0000000000
1717675126331,12.0000000000,0.0000000000,0.0000000000,33.0000000000,50.0000000000,0.0000000000
1717675126331,12.0000000000,0.0000000000,0.0000000000,33.0000000000,51.0000000000,0.0000000000
1717675126332,13.0000000000,0.0000000000,1.0000000000,33.0000000000,50.0000000000,0.0000000000
1717675126332,13.0000000000,0.0000000000,0.0000000000,32.0000000000,49.0000000000,0.0000000000
1717675126332,13.0000000000,0.0000000000,0.0000000000,33.0000000000,49.0000000000,0.0000000000
1717675126332,13.0000000000,0.0000000000,0.0000000000,32.0000000000,50.0000000000,0.0000000000
1717675126332,13.0000000000,0.0000000000,1.0000000000,31.0000000000,49.0000000000,0.0000000000
1717675126332,13.0000000000,0.0000000000,0.0000000000,31.0000000000,49.0000000000,0.0000000000
1717675126332,12.0000000000,0.0000000000,0.0000000000,31.0000000000,49.0000000000,0.0000000000
1717675126332,12.0000000000,0.0000000000,0.0000000000,31.0000000000,49.0000000000,0.0000000000
1717675126347,12.0000000000,0.0000000000,0.0000000000,31.0000000000,49.0000000000,0.0000000000
1717675126348,12.0000000000,0.0000000000,0.0000000000,31.0000000000,48.0000000000,0.0000000000
1717675126348,12.0000000000,0.0000000000,0.0000000000,31.0000000000,48.0000000000,0.0000000000
1717675126348,12.0000000000,0.0000000000,0.0000000000,31.0000000000,48.0000000000,0.0000000000
1717675126348,12.0000000000,0.0000000000,0.0000000000,31.0000000000,48.0000000000,0.0000000000
1717675126349,12.0000000000,0.0000000000,6.0000000000,31.0000000000,48.0000000000,0.0000000000
1717675126349,12.0000000000,0.0000000000,77.0000000000,31.0000000000,47.0000000000,0.0000000000
1717675126349,14.0000000000,0.0000000000,140.0000000000,31.0000000000,47.0000000000,0.0000000000
1717675126349,13.0000000000,0.0000000000,139.0000000000,31.0000000000,47.0000000000,0.0000000000
1717675126350,14.0000000000,0.0000000000,136.0000000000,30.0000000000,47.0000000000,0.0000000000
1717675126350,14.0000000000,0.0000000000,135.0000000000,30.0000000000,47.0000000000,0.0000000000
1717675126350,13.0000000000,0.0000000000,135.0000000000,30.0000000000,46.0000000000,0.0000000000
1717675126369,13.0000000000,0.0000000000,134.0000000000,30.0000000000,46.0000000000,0.0000000000
1717675126370,13.0000000000,0.0000000000,134.0000000000,30.0000000000,46.0000000000,0.0000000000
1717675126370,13.0000000000,0.0000000000,132.0000000000,29.0000000000,46.0000000000,0.0000000000
1717675126370,13.0000000000,0.0000000000,132.0000000000,30.0000000000,46.0000000000,0.0000000000
1717675126370,12.0000000000,0.0000000000,131.0000000000,30.0000000000,46.0000000000,0.0000000000
1717675126370,13.0000000000,0.0000000000,131.0000000000,29.0000000000,45.0000000000,0.0000000000
1717675126370,12.0000000000,0.0000000000,129.0000000000,29.0000000000,45.0000000000,0.0000000000
1717675126371,12.0000000000,0.0000000000,129.0000000000,29.0000000000,45.0000000000,0.0000000000
1717675126371,13.0000000000,0.0000000000,128.0000000000,29.0000000000,45.0000000000,0.0000000000
1717675126371,13.0000000000,0.0000000000,127.0000000000,29.0000000000,44.0000000000,0.0000000000
1717675126371,14.0000000000,0.0000000000,127.0000000000,29.0000000000,44.0000000000,0.0000000000
1717675126371,13.0000000000,0.0000000000,126.0000000000,28.0000000000,44.0000000000,0.0000000000
1717675126372,13.0000000000,0.0000000000,125.0000000000,28.0000000000,44.0000000000,0.0000000000
1717675126394,13.0000000000,0.0000000000,125.0000000000,28.0000000000,43.0000000000,0.0000000000
1717675126397,13.0000000000,0.0000000000,124.0000000000,28.0000000000,43.0000000000,0.0000000000
1717675126397,13.0000000000,0.0000000000,124.0000000000,28.0000000000,43.0000000000,0.0000000000
1717675126398,13.0000000000,0.0000000000,123.0000000000,28.0000000000,43.0000000000,0.0000000000
1717675126398,12.0000000000,0.0000000000,123.0000000000,28.0000000000,43.0000000000,0.0000000000
1717675126398,13.0000000000,0.0000000000,121.0000000000,28.0000000000,43.0000000000,0.0000000000
1717675126399,12.0000000000,0.0000000000,121.0000000000,27.0000000000,43.0000000000,0.0000000000
1717675126400,13.0000000000,0.0000000000,120.0000000000,27.0000000000,43.0000000000,0.0000000000
1717675126400,12.0000000000,0.0000000000,120.0000000000,28.0000000000,42.0000000000,0.0000000000
1717675126400,12.0000000000,0.0000000000,120.0000000000,27.0000000000,41.0000000000,0.0000000000
1717675126401,13.0000000000,0.0000000000,120.0000000000,27.0000000000,41.0000000000,0.0000000000
1717675126401,12.0000000000,0.0000000000,118.0000000000,27.0000000000,41.0000000000,0.0000000000
1717675126402,12.0000000000,0.0000000000,117.0000000000,27.0000000000,41.0000000000,0.0000000000
1717675126402,12.0000000000,0.0000000000,117.0000000000,27.0000000000,41.0000000000,0.0000000000
1717675126402,12.0000000000,0.0000000000,116.0000000000,27.0000000000,40.0000000000,0.0000000000
1717675126403,12.0000000000,0.0000000000,115.0000000000,26.0000000000,40.0000000000,0.0000000000
1717675126403,12.0000000000,0.0000000000,115.0000000000,25.0000000000,40.0000000000,0.0000000000
1717675126403,12.0000000000,0.0000000000,115.0000000000,25.0000000000,40.0000000000,0.0000000000
1717675126404,12.0000000000,0.0000000000,115.0000000000,26.0000000000,39.0000000000,0.0000000000
1717675126404,12.0000000000,0.0000000000,114.0000000000,25.0000000000,39.0000000000,0.0000000000
1717675126404,12.0000000000,0.0000000000,113.0000000000,25.0000000000,39.0000000000,0.0000000000
1717675126422,12.0000000000,0.0000000000,113.0000000000,25.0000000000,39.0000000000,0.0000000000
1717675126422,12.0000000000,0.0000000000,112.0000000000,25.0000000000,39.0000000000,0.0000000000
1717675126422,12.0000000000,0.0000000000,112.0000000000,25.0000000000,39.0000000000,0.0000000000
1717675126423,12.0000000000,0.0000000000,111.0000000000,25.0000000000,39.0000000000,0.0000000000
1717675126423,12.0000000000,0.0000000000,111.0000000000,25.0000000000,39.0000000000,0.0000000000
1717675126423,12.0000000000,0.0000000000,110.0000000000,25.0000000000,39.0000000000,0.0000000000
1717675126423,12.0000000000,0.0000000000,109.0000000000,25.0000000000,39.0000000000,0.0000000000
1717675126423,12.0000000000,0.0000000000,108.0000000000,24.0000000000,39.0000000000,0.0000000000
1717675126423,12.0000000000,0.0000000000,108.0000000000,24.0000000000,39.0000000000,0.0000000000
1717675126423,12.0000000000,0.0000000000,108.0000000000,24.0000000000,38.0000000000,0.0000000000
1717675126423,12.0000000000,0.0000000000,108.0000000000,24.0000000000,38.0000000000,0.0000000000
1717675126423,12.0000000000,0.0000000000,111.0000000000,24.0000000000,38.0000000000,0.0000000000
1717675126423,12.0000000000,0.0000000000,172.0000000000,24.0000000000,38.0000000000,0.0000000000
1717675126424,12.0000000000,0.0000000000,169.0000000000,24.0000000000,38.0000000000,0.0000000000
1717675126437,12.0000000000,0.0000000000,167.0000000000,24.0000000000,37.0000000000,0.0000000000
1717675126438,12.0000000000,0.0000000000,195.0000000000,24.0000000000,36.0000000000,0.0000000000
1717675126438,12.0000000000,0.0000000000,243.0000000000,24.0000000000,37.0000000000,0.0000000000
1717675126438,12.0000000000,12.0000000000,240.0000000000,24.0000000000,36.0000000000,0.0000000000
1717675126439,12.0000000000,13.0000000000,239.0000000000,24.0000000000,36.0000000000,0.0000000000
1717675126439,12.0000000000,13.0000000000,237.0000000000,24.0000000000,36.0000000000,0.0000000000
1717675126439,12.0000000000,12.0000000000,236.0000000000,24.0000000000,36.0000000000,0.0000000000
1717675126439,12.0000000000,20.0000000000,233.0000000000,23.0000000000,36.0000000000,0.0000000000
1717675126439,11.0000000000,20.0000000000,231.0000000000,24.0000000000,35.0000000000,0.0000000000
1717675126439,12.0000000000,19.0000000000,231.0000000000,23.0000000000,35.0000000000,0.0000000000
1717675126455,12.0000000000,19.0000000000,230.0000000000,23.0000000000,35.0000000000,0.0000000000
1717675126456,12.0000000000,19.0000000000,306.0000000000,23.0000000000,35.0000000000,0.0000000000
1717675126456,12.0000000000,33.0000000000,303.0000000000,23.0000000000,35.0000000000,0.0000000000
1717675126456,12.0000000000,33.0000000000,301.0000000000,23.0000000000,35.0000000000,0.0000000000
1717675126456,12.0000000000,32.0000000000,299.0000000000,23.0000000000,35.0000000000,0.0000000000
1717675126456,12.0000000000,31.0000000000,295.0000000000,22.0000000000,35.0000000000,0.0000000000
1717675126456,12.0000000000,32.0000000000,295.0000000000,22.0000000000,35.0000000000,0.0000000000
1717675126456,12.0000000000,31.0000000000,294.0000000000,22.0000000000,34.0000000000,0.0000000000
1717675126456,12.0000000000,52.0000000000,291.0000000000,22.0000000000,34.0000000000,0.0000000000
1717675126456,12.0000000000,55.0000000000,289.0000000000,22.0000000000,34.0000000000,0.0000000000
1717675126471,12.0000000000,71.0000000000,287.0000000000,22.0000000000,34.0000000000,0.0000000000
1717675126472,12.0000000000,71.0000000000,286.0000000000,21.0000000000,33.0000000000,0.0000000000
1717675126472,12.0000000000,70.0000000000,284.0000000000,21.0000000000,33.0000000000,0.0000000000
1717675126472,12.0000000000,70.0000000000,282.0000000000,21.0000000000,33.0000000000,0.0000000000
1717675126472,19.0000000000,69.0000000000,280.0000000000,22.0000000000,33.0000000000,0.0000000000
1717675126472,91.0000000000,68.0000000000,280.0000000000,21.0000000000,33.0000000000,0.0000000000
1717675126472,89.0000000000,68.0000000000,303.0000000000,22.0000000000,32.0000000000,0.0000000000
1717675126472,88.0000000000,67.0000000000,448.0000000000,21.0000000000,33.0000000000,0.0000000000
1717675126472,88.0000000000,111.0000000000,507.0000000000,20.0000000000,32.0000000000,0.0000000000
1717675126472,88.0000000000,110.0000000000,502.0000000000,20.0000000000,32.0000000000,0.0000000000
1717675126490,87.0000000000,109.0000000000,496.0000000000,20.0000000000,31.0000000000,0.0000000000
1717675126492,86.0000000000,108.0000000000,492.0000000000,20.0000000000,31.0000000000,0.0000000000
1717675126492,85.0000000000,107.0000000000,487.0000000000,20.0000000000,31.0000000000,0.0000000000
1717675126492,84.0000000000,107.0000000000,484.0000000000,19.0000000000,31.0000000000,0.0000000000
1717675126493,84.0000000000,106.0000000000,480.0000000000,20.0000000000,31.0000000000,0.0000000000
1717675126493,83.0000000000,105.0000000000,476.0000000000,20.0000000000,31.0000000000,0.0000000000
1717675126493,83.0000000000,103.0000000000,473.0000000000,20.0000000000,31.0000000000,0.0000000000
1717675126493,83.0000000000,103.0000000000,469.0000000000,19.0000000000,31.0000000000,0.0000000000
1717675126493,82.0000000000,103.0000000000,465.0000000000,19.0000000000,31.0000000000,0.0000000000
1717675126494,81.0000000000,102.0000000000,462.0000000000,19.0000000000,31.0000000000,0.0000000000
1717675126494,81.0000000000,102.0000000000,459.0000000000,19.0000000000,30.0000000000,0.0000000000
1717675126495,79.0000000000,102.0000000000,455.0000000000,19.0000000000,31.0000000000,0.0000000000
1717675126511,79.0000000000,101.0000000000,452.0000000000,19.0000000000,30.0000000000,0.0000000000
1717675126512,79.0000000000,99.0000000000,449.0000000000,19.0000000000,30.0000000000,0.0000000000
1717675126512,79.0000000000,99.0000000000,446.0000000000,19.0000000000,30.0000000000,0.0000000000
1717675126512,79.0000000000,99.0000000000,443.0000000000,19.0000000000,30.0000000000,0.0000000000
1717675126512,89.0000000000,99.0000000000,440.0000000000,19.0000000000,30.0000000000,0.0000000000
1717675126512,145.0000000000,98.0000000000,438.0000000000,19.0000000000,30.0000000000,0.0000000000
1717675126512,152.0000000000,97.0000000000,434.0000000000,19.0000000000,30.0000000000,0.0000000000
1717675126512,153.0000000000,96.0000000000,431.0000000000,19.0000000000,30.0000000000,0.0000000000
1717675126512,152.0000000000,96.0000000000,428.0000000000,19.0000000000,29.0000000000,0.0000000000
1717675126512,151.0000000000,95.0000000000,425.0000000000,19.0000000000,30.0000000000,0.0000000000
1717675126512,150.0000000000,95.0000000000,423.0000000000,18.0000000000,29.0000000000,0.0000000000
1717675126513,149.0000000000,94.0000000000,419.0000000000,18.0000000000,29.0000000000,0.0000000000
1717675126527,148.0000000000,94.0000000000,417.0000000000,18.0000000000,29.0000000000,0.0000000000
1717675126528,147.0000000000,94.0000000000,414.0000000000,18.0000000000,29.0000000000,0.0000000000
1717675126528,146.0000000000,93.0000000000,412.0000000000,18.0000000000,29.0000000000,0.0000000000
1717675126528,145.0000000000,92.0000000000,408.0000000000,18.0000000000,28.0000000000,0.0000000000
1717675126528,143.0000000000,92.0000000000,406.0000000000,17.0000000000,28.0000000000,0.0000000000
1717675126528,143.0000000000,92.0000000000,403.0000000000,18.0000000000,28.0000000000,0.0000000000
1717675126528,142.0000000000,91.0000000000,400.0000000000,17.0000000000,28.0000000000,0.0000000000
1717675126528,142.0000000000,90.0000000000,398.0000000000,18.0000000000,28.0000000000,0.0000000000
1717675126544,141.0000000000,90.0000000000,396.0000000000,17.0000000000,28.0000000000,0.0000000000
1717675126544,140.0000000000,89.0000000000,393.0000000000,17.0000000000,28.0000000000,0.0000000000
1717675126544,140.0000000000,89.0000000000,391.0000000000,17.0000000000,28.0000000000,0.0000000000
1717675126545,139.0000000000,100.0000000000,388.0000000000,17.0000000000,28.0000000000,0.0000000000
1717675126545,137.0000000000,163.0000000000,385.0000000000,17.0000000000,27.0000000000,0.0000000000
1717675126545,137.0000000000,160.0000000000,384.0000000000,17.0000000000,27.0000000000,0.0000000000
1717675126545,135.0000000000,159.0000000000,380.0000000000,17.0000000000,27.0000000000,0.0000000000
1717675126545,135.0000000000,158.0000000000,386.0000000000,17.0000000000,27.0000000000,0.0000000000
1717675126545,246.0000000000,158.0000000000,412.0000000000,17.0000000000,27.0000000000,0.0000000000
1717675126545,383.0000000000,156.0000000000,408.0000000000,17.0000000000,26.0000000000,0.0000000000
1717675126545,390.0000000000,155.0000000000,406.0000000000,17.0000000000,26.0000000000,0.0000000000
1717675126572,385.0000000000,153.0000000000,403.0000000000,16.0000000000,27.0000000000,0.0000000000
1717675126573,382.0000000000,152.0000000000,400.0000000000,16.0000000000,27.0000000000,0.0000000000
1717675126573,379.0000000000,152.0000000000,398.0000000000,15.0000000000,25.0000000000,0.0000000000
1717675126573,376.0000000000,151.0000000000,395.0000000000,16.0000000000,26.0000000000,0.0000000000
1717675126573,372.0000000000,150.0000000000,391.0000000000,16.0000000000,27.0000000000,0.0000000000
1717675126573,369.0000000000,148.0000000000,388.0000000000,16.0000000000,25.0000000000,0.0000000000
1717675126573,367.0000000000,148.0000000000,386.0000000000,16.0000000000,25.0000000000,0.0000000000
1717675126573,364.0000000000,147.0000000000,384.0000000000,16.0000000000,25.0000000000,0.0000000000
1717675126573,361.0000000000,146.0000000000,381.0000000000,15.0000000000,25.0000000000,0.0000000000
1717675126574,359.0000000000,145.0000000000,378.0000000000,15.0000000000,25.0000000000,0.0000000000
1717675126574,355.0000000000,143.0000000000,376.0000000000,15.0000000000,25.0000000000,0.0000000000
1717675126574,353.0000000000,143.0000000000,374.0000000000,15.0000000000,25.0000000000,0.0000000000
1717675126574,351.0000000000,143.0000000000,371.0000000000,15.0000000000,25.0000000000,0.0000000000
1717675126574,348.0000000000,141.0000000000,368.0000000000,15.0000000000,25.0000000000,0.0000000000
1717675126574,345.0000000000,141.0000000000,366.0000000000,15.0000000000,25.0000000000,0.0000000000
1717675126575,344.0000000000,140.0000000000,364.0000000000,15.0000000000,25.0000000000,0.0000000000
1717675126591,340.0000000000,139.0000000000,361.0000000000,15.0000000000,24.0000000000,0.0000000000
1717675126592,338.0000000000,138.0000000000,359.0000000000,15.0000000000,25.0000000000,0.0000000000
1717675126592,335.0000000000,137.0000000000,357.0000000000,15.0000000000,25.0000000000,0.0000000000
1717675126593,334.0000000000,136.0000000000,355.0000000000,15.0000000000,24.0000000000,0.0000000000
1717675126593,332.0000000000,135.0000000000,353.0000000000,15.0000000000,24.0000000000,0.0000000000
1717675126593,329.0000000000,163.0000000000,351.0000000000,14.0000000000,24.0000000000,0.0000000000
1717675126593,327.0000000000,161.0000000000,348.0000000000,14.0000000000,24.0000000000,0.0000000000
1717675126593,325.0000000000,159.0000000000,347.0000000000,15.0000000000,24.0000000000,0.0000000000
1717675126594,323.0000000000,159.0000000000,344.0000000000,15.0000000000,24.0000000000,0.0000000000
1717675126619,321.0000000000,157.0000000000,343.0000000000,15.0000000000,25.0000000000,0.0000000000
1717675126619,319.0000000000,159.0000000000,340.0000000000,14.0000000000,30.0000000000,0.0000000000
1717675126619,434.0000000000,158.0000000000,403.0000000000,14.0000000000,29.0000000000,0.0000000000
1717675126619,449.0000000000,156.0000000000,399.0000000000,14.0000000000,30.0000000000,0.0000000000
1717675126619,446.0000000000,156.0000000000,452.0000000000,14.0000000000,29.0000000000,0.0000000000
1717675126620,441.0000000000,201.0000000000,478.0000000000,14.0000000000,29.0000000000,0.0000000000
1717675126620,437.0000000000,210.0000000000,553.0000000000,14.0000000000,29.0000000000,0.0000000000
1717675126620,446.0000000000,207.0000000000,547.0000000000,14.0000000000,29.0000000000,0.0000000000
1717675126620,441.0000000000,209.0000000000,543.0000000000,14.0000000000,28.0000000000,0.0000000000
1717675126620,437.0000000000,219.0000000000,537.0000000000,14.0000000000,28.0000000000,0.0000000000
1717675126620,433.0000000000,216.0000000000,534.0000000000,14.0000000000,28.0000000000,0.0000000000
1717675126620,430.0000000000,215.0000000000,529.0000000000,14.0000000000,28.0000000000,0.0000000000
1717675126620,428.0000000000,275.0000000000,526.0000000000,14.0000000000,28.0000000000,0.0000000000
1717675126620,423.0000000000,271.0000000000,519.0000000000,14.0000000000,28.0000000000,0.0000000000
1717675126620,419.0000000000,270.0000000000,515.0000000000,13.0000000000,28.0000000000,0.0000000000
1717675126621,417.0000000000,267.0000000000,512.0000000000,13.0000000000,27.0000000000,0.0000000000
1717675126635,414.0000000000,265.0000000000,507.0000000000,13.0000000000,27.0000000000,0.0000000000
1717675126636,410.0000000000,263.0000000000,504.0000000000,13.0000000000,27.0000000000,0.0000000000
1717675126636,407.0000000000,261.0000000000,499.0000000000,13.0000000000,27.0000000000,0.0000000000
1717675126636,404.0000000000,259.0000000000,495.0000000000,13.0000000000,26.0000000000,0.0000000000
1717675126636,401.0000000000,258.0000000000,492.0000000000,13.0000000000,27.0000000000,0.0000000000
1717675126636,398.0000000000,255.0000000000,487.0000000000,12.0000000000,25.0000000000,0.0000000000
1717675126636,396.0000000000,255.0000000000,484.0000000000,13.0000000000,25.0000000000,0.0000000000
1717675126637,391.0000000000,321.0000000000,489.0000000000,13.0000000000,26.0000000000,0.0000000000
1717675126637,389.0000000000,369.0000000000,484.0000000000,12.0000000000,26.0000000000,0.0000000000
1717675126637,387.0000000000,366.0000000000,481.0000000000,13.0000000000,25.0000000000,0.0000000000
1717675126657,384.0000000000,363.0000000000,478.0000000000,12.0000000000,25.0000000000,0.0000000000
1717675126659,381.0000000000,359.0000000000,475.0000000000,12.0000000000,25.0000000000,0.0000000000
1717675126660,379.0000000000,358.0000000000,470.0000000000,12.0000000000,25.0000000000,0.0000000000
1717675126660,376.0000000000,354.0000000000,467.0000000000,12.0000000000,25.0000000000,0.0000000000
1717675126661,373.0000000000,352.0000000000,463.0000000000,12.0000000000,25.0000000000,0.0000000000
1717675126661,370.0000000000,350.0000000000,460.0000000000,12.0000000000,24.0000000000,0.0000000000
1717675126661,368.0000000000,347.0000000000,456.0000000000,12.0000000000,24.0000000000,0.0000000000
1717675126662,365.0000000000,344.0000000000,454.0000000000,12.0000000000,24.0000000000,0.0000000000
1717675126662,363.0000000000,342.0000000000,451.0000000000,12.0000000000,24.0000000000,0.0000000000
1717675126662,359.0000000000,339.0000000000,447.0000000000,12.0000000000,24.0000000000,0.0000000000
1717675126663,358.0000000000,337.0000000000,444.0000000000,12.0000000000,24.0000000000,0.0000000000
1717675126663,355.0000000000,335.0000000000,440.0000000000,12.0000000000,24.0000000000,0.0000000000
1717675126665,353.0000000000,332.0000000000,438.0000000000,12.0000000000,24.0000000000,0.0000000000
1717675126665,351.0000000000,329.0000000000,435.0000000000,12.0000000000,24.0000000000,0.0000000000
1717675126665,348.0000000000,327.0000000000,432.0000000000,12.0000000000,24.0000000000,0.0000000000
1717675126665,346.0000000000,326.0000000000,429.0000000000,11.0000000000,24.0000000000,0.0000000000
1717675126682,344.0000000000,323.0000000000,425.0000000000,11.0000000000,24.0000000000,0.0000000000
1717675126682,341.0000000000,321.0000000000,423.0000000000,12.0000000000,24.0000000000,0.0000000000
1717675126682,339.0000000000,319.0000000000,419.0000000000,12.0000000000,23.0000000000,0.0000000000
1717675126682,337.0000000000,318.0000000000,416.0000000000,12.0000000000,24.0000000000,0.0000000000
1717675126682,335.0000000000,315.0000000000,415.0000000000,12.0000000000,24.0000000000,0.0000000000
1717675126683,333.0000000000,312.0000000000,412.0000000000,12.0000000000,23.0000000000,0.0000000000
1717675126683,331.0000000000,312.0000000000,408.0000000000,11.0000000000,23.0000000000,0.0000000000
1717675126683,327.0000000000,308.0000000000,406.0000000000,11.0000000000,23.0000000000,0.0000000000
1717675126683,327.0000000000,307.0000000000,403.0000000000,12.0000000000,23.0000000000,0.0000000000
1717675126700,324.0000000000,305.0000000000,401.0000000000,11.0000000000,23.0000000000,0.0000000000
1717675126701,323.0000000000,304.0000000000,398.0000000000,11.0000000000,23.0000000000,0.0000000000
1717675126701,319.0000000000,302.0000000000,443.0000000000,11.0000000000,23.0000000000,0.0000000000
1717675126701,318.0000000000,300.0000000000,556.0000000000,11.0000000000,23.0000000000,0.0000000000
1717675126701,316.0000000000,297.0000000000,549.0000000000,11.0000000000,22.0000000000,0.0000000000
1717675126701,315.0000000000,295.0000000000,544.0000000000,11.0000000000,22.0000000000,0.0000000000
1717675126701,312.0000000000,295.0000000000,540.0000000000,11.0000000000,22.0000000000,0.0000000000
1717675126701,311.0000000000,292.0000000000,536.0000000000,11.0000000000,23.0000000000,0.0000000000
1717675126701,308.0000000000,291.0000000000,530.0000000000,11.0000000000,22.0000000000,0.0000000000
1717675126702,307.0000000000,288.0000000000,525.0000000000,11.0000000000,22.0000000000,0.0000000000
1717675126702,304.0000000000,287.0000000000,521.0000000000,10.0000000000,22.0000000000,0.0000000000
1717675126715,303.0000000000,286.0000000000,516.0000000000,11.0000000000,22.0000000000,0.0000000000
1717675126716,301.0000000000,283.0000000000,513.0000000000,11.0000000000,22.0000000000,0.0000000000
1717675126716,299.0000000000,281.0000000000,508.0000000000,10.0000000000,22.0000000000,0.0000000000
1717675126716,297.0000000000,280.0000000000,504.0000000000,11.0000000000,21.0000000000,0.0000000000
1717675126717,295.0000000000,278.0000000000,500.0000000000,10.0000000000,22.0000000000,0.0000000000
1717675126717,294.0000000000,277.0000000000,564.0000000000,10.0000000000,21.0000000000,0.0000000000
1717675126717,291.0000000000,275.0000000000,621.0000000000,10.0000000000,21.0000000000,0.0000000000
1717675126718,290.0000000000,274.0000000000,622.0000000000,10.0000000000,20.0000000000,0.0000000000
1717675126718,288.0000000000,271.0000000000,617.0000000000,10.0000000000,21.0000000000,0.0000000000
1717675126733,287.0000000000,270.0000000000,612.0000000000,10.0000000000,20.0000000000,0.0000000000
1717675126734,285.0000000000,268.0000000000,606.0000000000,10.0000000000,20.0000000000,0.0000000000
1717675126734,283.0000000000,267.0000000000,601.0000000000,9.0000000000,20.0000000000,0.0000000000
1717675126734,281.0000000000,265.0000000000,595.0000000000,9.0000000000,20.0000000000,0.0000000000
1717675126734,280.0000000000,263.0000000000,591.0000000000,9.0000000000,20.0000000000,0.0000000000
1717675126735,279.0000000000,263.0000000000,585.0000000000,9.0000000000,20.0000000000,0.0000000000
1717675126735,278.0000000000,262.0000000000,580.0000000000,9.0000000000,20.0000000000,0.0000000000
1717675126735,275.0000000000,259.0000000000,575.0000000000,9.0000000000,20.0000000000,0.0000000000
1717675126735,274.0000000000,258.0000000000,571.0000000000,10.0000000000,27.0000000000,0.0000000000
1717675126735,272.0000000000,257.0000000000,567.0000000000,9.0000000000,27.0000000000,0.0000000000
1717675126751,271.0000000000,255.0000000000,561.0000000000,10.0000000000,27.0000000000,0.0000000000
1717675126751,270.0000000000,254.0000000000,557.0000000000,9.0000000000,27.0000000000,0.0000000000
1717675126751,268.0000000000,252.0000000000,551.0000000000,10.0000000000,27.0000000000,0.0000000000
1717675126752,266.0000000000,251.0000000000,547.0000000000,9.0000000000,26.0000000000,0.0000000000
1717675126752,265.0000000000,249.0000000000,543.0000000000,9.0000000000,26.0000000000,0.0000000000
1717675126752,263.0000000000,248.0000000000,540.0000000000,9.0000000000,25.0000000000,0.0000000000
1717675126752,275.0000000000,248.0000000000,536.0000000000,9.0000000000,25.0000000000,0.0000000000
1717675126752,272.0000000000,246.0000000000,531.0000000000,9.0000000000,25.0000000000,0.0000000000
1717675126752,270.0000000000,244.0000000000,527.0000000000,9.0000000000,25.0000000000,0.0000000000
1717675126752,268.0000000000,243.0000000000,523.0000000000,9.0000000000,25.0000000000,0.0000000000
1717675126767,267.0000000000,241.0000000000,519.0000000000,9.0000000000,24.0000000000,0.0000000000
1717675126767,265.0000000000,240.0000000000,515.0000000000,9.0000000000,24.0000000000,0.0000000000
1717675126768,263.0000000000,240.0000000000,512.0000000000,9.0000000000,25.0000000000,0.0000000000
1717675126768,262.0000000000,238.0000000000,508.0000000000,9.0000000000,24.0000000000,0.0000000000
1717675126768,260.0000000000,237.0000000000,504.0000000000,9.0000000000,24.0000000000,0.0000000000
1717675126768,259.0000000000,236.0000000000,501.0000000000,9.0000000000,24.0000000000,0.0000000000
1717675126768,257.0000000000,235.0000000000,496.0000000000,8.0000000000,24.0000000000,0.0000000000
1717675126768,255.0000000000,232.0000000000,509.0000000000,9.0000000000,24.0000000000,0.0000000000
1717675126769,255.0000000000,231.0000000000,578.0000000000,9.0000000000,24.0000000000,0.0000000000
1717675126782,253.0000000000,231.0000000000,574.0000000000,8.0000000000,23.0000000000,0.0000000000
1717675126783,252.0000000000,230.0000000000,568.0000000000,7.0000000000,24.0000000000,0.0000000000
1717675126783,251.0000000000,228.0000000000,605.0000000000,8.0000000000,24.0000000000,0.0000000000
1717675126783,249.0000000000,227.0000000000,600.0000000000,7.0000000000,24.0000000000,0.0000000000
1717675126784,248.0000000000,226.0000000000,593.0000000000,9.0000000000,23.0000000000,0.0000000000
1717675126784,247.0000000000,225.0000000000,588.0000000000,8.0000000000,24.0000000000,0.0000000000
1717675126784,246.0000000000,224.0000000000,583.0000000000,7.0000000000,24.0000000000,0.0000000000
1717675126785,244.0000000000,222.0000000000,578.0000000000,8.0000000000,24.0000000000,0.0000000000
1717675126785,243.0000000000,222.0000000000,574.0000000000,9.0000000000,24.0000000000,0.0000000000
1717675126785,241.0000000000,220.0000000000,568.0000000000,7.0000000000,23.0000000000,0.0000000000
1717675126802,240.0000000000,219.0000000000,563.0000000000,8.0000000000,23.0000000000,0.0000000000
1717675126803,240.0000000000,217.0000000000,559.0000000000,8.0000000000,23.0000000000,0.0000000000
1717675126803,238.0000000000,217.0000000000,555.0000000000,7.0000000000,22.0000000000,0.0000000000
1717675126803,236.0000000000,216.0000000000,550.0000000000,7.0000000000,23.0000000000,0.0000000000
1717675126803,236.0000000000,215.0000000000,545.0000000000,7.0000000000,22.0000000000,0.0000000000
1717675126803,234.0000000000,214.0000000000,542.0000000000,7.0000000000,22.0000000000,0.0000000000
1717675126803,233.0000000000,212.0000000000,537.0000000000,7.0000000000,22.0000000000,0.0000000000
1717675126803,231.0000000000,211.0000000000,534.0000000000,7.0000000000,22.0000000000,0.0000000000
1717675126804,231.0000000000,211.0000000000,528.0000000000,7.0000000000,22.0000000000,0.0000000000
1717675126804,230.0000000000,209.0000000000,525.0000000000,7.0000000000,21.0000000000,0.0000000000
1717675126804,228.0000000000,207.0000000000,521.0000000000,7.0000000000,22.0000000000,0.0000000000
1717675126804,227.0000000000,207.0000000000,516.0000000000,7.0000000000,22.0000000000,0.0000000000
1717675126820,226.0000000000,206.0000000000,513.0000000000,7.0000000000,22.0000000000,0.0000000000
1717675126820,225.0000000000,206.0000000000,508.0000000000,7.0000000000,22.0000000000,0.0000000000
1717675126820,224.0000000000,204.0000000000,505.0000000000,7.0000000000,21.0000000000,0.0000000000
1717675126820,224.0000000000,203.0000000000,502.0000000000,7.0000000000,21.0000000000,0.0000000000
1717675126821,222.0000000000,202.0000000000,498.0000000000,7.0000000000,21.0000000000,0.0000000000
1717675126821,221.0000000000,204.0000000000,496.0000000000,7.0000000000,20.0000000000,0.0000000000
1717675126821,220.0000000000,236.0000000000,491.0000000000,7.0000000000,20.0000000000,0.0000000000
1717675126821,219.0000000000,235.0000000000,487.0000000000,7.0000000000,20.0000000000,0.0000000000
1717675126821,217.0000000000,233.0000000000,483.0000000000,7.0000000000,20.0000000000,0.0000000000
1717675126836,216.0000000000,231.0000000000,481.0000000000,7.0000000000,20.0000000000,0.0000000000
1717675126837,216.0000000000,230.0000000000,478.0000000000,7.0000000000,19.0000000000,0.0000000000
1717675126837,214.0000000000,228.0000000000,473.0000000000,7.0000000000,20.0000000000,0.0000000000
1717675126837,214.0000000000,306.0000000000,472.0000000000,7.0000000000,20.0000000000,0.0000000000
1717675126837,211.0000000000,303.0000000000,467.0000000000,7.0000000000,20.0000000000,0.0000000000
1717675126837,211.0000000000,300.0000000000,465.0000000000,7.0000000000,19.0000000000,0.0000000000
1717675126837,210.0000000000,299.0000000000,462.0000000000,7.0000000000,19.0000000000,0.0000000000
1717675126837,209.0000000000,295.0000000000,459.0000000000,7.0000000000,19.0000000000,0.0000000000
1717675126837,221.0000000000,295.0000000000,455.0000000000,7.0000000000,19.0000000000,0.0000000000
1717675126837,243.0000000000,292.0000000000,514.0000000000,7.0000000000,19.0000000000,0.0000000000
1717675126853,242.0000000000,290.0000000000,510.0000000000,7.0000000000,19.0000000000,0.0000000000
1717675126854,241.0000000000,287.0000000000,504.0000000000,7.0000000000,19.0000000000,0.0000000000
1717675126854,239.0000000000,286.0000000000,501.0000000000,7.0000000000,19.0000000000,0.0000000000
1717675126854,238.0000000000,284.0000000000,497.0000000000,7.0000000000,19.0000000000,0.0000000000
1717675126854,236.0000000000,283.0000000000,493.0000000000,7.0000000000,19.0000000000,0.0000000000
1717675126854,233.0000000000,280.0000000000,489.0000000000,7.0000000000,19.0000000000,0.0000000000
1717675126854,232.0000000000,280.0000000000,486.0000000000,7.0000000000,18.0000000000,0.0000000000
1717675126855,231.0000000000,277.0000000000,482.0000000000,7.0000000000,19.0000000000,0.0000000000
1717675126855,230.0000000000,275.0000000000,478.0000000000,18.0000000000,19.0000000000,0.0000000000
1717675126855,228.0000000000,274.0000000000,475.0000000000,39.0000000000,19.0000000000,0.0000000000
1717675126870,227.0000000000,271.0000000000,471.0000000000,38.0000000000,18.0000000000,0.0000000000
1717675126871,225.0000000000,271.0000000000,467.0000000000,38.0000000000,18.0000000000,0.0000000000
1717675126871,224.0000000000,269.0000000000,463.0000000000,37.0000000000,18.0000000000,0.0000000000
1717675126871,222.0000000000,268.0000000000,460.0000000000,38.0000000000,18.0000000000,0.0000000000
1717675126871,221.0000000000,265.0000000000,456.0000000000,37.0000000000,17.0000000000,0.0000000000
1717675126871,220.0000000000,263.0000000000,454.0000000000,36.0000000000,17.0000000000,0.0000000000
1717675126871,218.0000000000,262.0000000000,450.0000000000,36.0000000000,17.0000000000,0.0000000000
1717675126872,216.0000000000,260.0000000000,447.0000000000,35.0000000000,17.0000000000,0.0000000000
1717675126872,216.0000000000,259.0000000000,444.0000000000,35.0000000000,17.0000000000,0.0000000000
1717675126886,214.0000000000,257.0000000000,441.0000000000,35.0000000000,17.0000000000,0.0000000000
1717675126887,212.0000000000,255.0000000000,438.0000000000,35.0000000000,17.0000000000,0.0000000000
1717675126887,211.0000000000,254.0000000000,463.0000000000,35.0000000000,17.0000000000,0.0000000000
1717675126888,211.0000000000,252.0000000000,459.0000000000,35.0000000000,17.0000000000,0.0000000000
1717675126888,208.0000000000,251.0000000000,455.0000000000,35.0000000000,17.0000000000,0.0000000000
1717675126888,207.0000000000,249.0000000000,451.0000000000,34.0000000000,17.0000000000,0.0000000000
1717675126888,207.0000000000,248.0000000000,448.0000000000,34.0000000000,16.0000000000,0.0000000000
1717675126888,206.0000000000,246.0000000000,444.0000000000,34.0000000000,16.0000000000,0.0000000000
1717675126888,204.0000000000,245.0000000000,440.0000000000,33.0000000000,16.0000000000,0.0000000000
1717675126904,203.0000000000,243.0000000000,438.0000000000,33.0000000000,17.0000000000,0.0000000000
1717675126906,203.0000000000,242.0000000000,434.0000000000,33.0000000000,17.0000000000,0.0000000000
1717675126906,201.0000000000,241.0000000000,432.0000000000,33.0000000000,16.0000000000,0.0000000000
1717675126906,199.0000000000,240.0000000000,428.0000000000,32.0000000000,17.0000000000,0.0000000000
1717675126907,199.0000000000,238.0000000000,425.0000000000,32.0000000000,15.0000000000,0.0000000000
1717675126907,198.0000000000,236.0000000000,423.0000000000,32.0000000000,16.0000000000,0.0000000000
1717675126907,197.0000000000,236.0000000000,484.0000000000,31.0000000000,15.0000000000,0.0000000000
1717675126907,195.0000000000,233.0000000000,480.0000000000,31.0000000000,15.0000000000,0.0000000000
1717675126908,195.0000000000,231.0000000000,476.0000000000,31.0000000000,16.0000000000,0.0000000000
1717675126908,194.0000000000,231.0000000000,472.0000000000,31.0000000000,15.0000000000,0.0000000000
1717675126908,193.0000000000,229.0000000000,468.0000000000,31.0000000000,15.0000000000,0.0000000000
1717675126938,192.0000000000,267.0000000000,463.0000000000,31.0000000000,15.0000000000,0.0000000000
1717675126940,192.0000000000,263.0000000000,461.0000000000,31.0000000000,15.0000000000,0.0000000000
1717675126940,190.0000000000,262.0000000000,457.0000000000,31.0000000000,15.0000000000,0.0000000000
1717675126940,189.0000000000,260.0000000000,453.0000000000,30.0000000000,15.0000000000,0.0000000000
1717675126940,188.0000000000,258.0000000000,451.0000000000,30.0000000000,15.0000000000,0.0000000000
1717675126941,188.0000000000,255.0000000000,447.0000000000,30.0000000000,15.0000000000,0.0000000000
1717675126941,187.0000000000,255.0000000000,444.0000000000,30.0000000000,15.0000000000,0.0000000000
1717675126941,185.0000000000,254.0000000000,440.0000000000,30.0000000000,15.0000000000,0.0000000000
1717675126941,184.0000000000,252.0000000000,436.0000000000,30.0000000000,15.0000000000,0.0000000000
1717675126942,184.0000000000,249.0000000000,433.0000000000,30.0000000000,15.0000000000,0.0000000000
1717675126942,219.0000000000,248.0000000000,430.0000000000,29.0000000000,15.0000000000,0.0000000000
1717675126942,226.0000000000,247.0000000000,427.0000000000,29.0000000000,14.0000000000,0.0000000000
1717675126942,224.0000000000,245.0000000000,423.0000000000,29.0000000000,15.0000000000,0.0000000000
1717675126943,222.0000000000,243.0000000000,421.0000000000,29.0000000000,15.0000000000,0.0000000000
1717675126943,221.0000000000,242.0000000000,418.0000000000,28.0000000000,39.0000000000,0.0000000000
1717675126943,220.0000000000,240.0000000000,415.0000000000,28.0000000000,44.0000000000,0.0000000000
1717675126943,217.0000000000,239.0000000000,412.0000000000,28.0000000000,44.0000000000,0.0000000000
1717675126944,216.0000000000,238.0000000000,409.0000000000,28.0000000000,43.0000000000,0.0000000000
1717675126944,215.0000000000,236.0000000000,408.0000000000,28.0000000000,43.0000000000,0.0000000000
1717675126944,263.0000000000,235.0000000000,404.0000000000,83.0000000000,43.0000000000,0.0000000000
1717675126944,259.0000000000,233.0000000000,401.0000000000,108.0000000000,43.0000000000,0.0000000000
1717675126960,257.0000000000,231.0000000000,399.0000000000,107.0000000000,42.0000000000,0.0000000000
1717675126961,255.0000000000,230.0000000000,396.0000000000,105.0000000000,41.0000000000,0.0000000000
1717675126961,254.0000000000,229.0000000000,434.0000000000,105.0000000000,41.0000000000,0.0000000000
1717675126961,252.0000000000,329.0000000000,429.0000000000,103.0000000000,41.0000000000,0.0000000000
1717675126962,249.0000000000,326.0000000000,426.0000000000,103.0000000000,41.0000000000,0.0000000000
1717675126962,248.0000000000,323.0000000000,423.0000000000,102.0000000000,39.0000000000,0.0000000000
1717675126962,247.0000000000,321.0000000000,419.0000000000,102.0000000000,39.0000000000,0.0000000000
1717675126962,244.0000000000,319.0000000000,415.0000000000,101.0000000000,39.0000000000,0.0000000000
1717675126962,243.0000000000,316.0000000000,412.0000000000,100.0000000000,39.0000000000,0.0000000000
1717675126976,241.0000000000,313.0000000000,409.0000000000,99.0000000000,39.0000000000,0.0000000000
1717675126977,240.0000000000,312.0000000000,406.0000000000,99.0000000000,39.0000000000,0.0000000000
1717675126977,238.0000000000,309.0000000000,403.0000000000,99.0000000000,39.0000000000,0.0000000000
1717675126977,236.0000000000,307.0000000000,399.0000000000,98.0000000000,39.0000000000,0.0000000000
1717675126977,235.0000000000,306.0000000000,398.0000000000,97.0000000000,39.0000000000,0.0000000000
1717675126977,233.0000000000,368.0000000000,395.0000000000,96.0000000000,38.0000000000,0.0000000000
1717675126977,231.0000000000,365.0000000000,391.0000000000,96.0000000000,38.0000000000,0.0000000000
1717675126977,231.0000000000,361.0000000000,390.0000000000,96.0000000000,38.0000000000,0.0000000000
1717675126978,229.0000000000,359.0000000000,387.0000000000,95.0000000000,38.0000000000,0.0000000000
1717675126993,227.0000000000,356.0000000000,385.0000000000,94.0000000000,37.0000000000,0.0000000000
1717675126993,226.0000000000,355.0000000000,382.0000000000,94.0000000000,37.0000000000,0.0000000000
1717675126993,225.0000000000,352.0000000000,380.0000000000,93.0000000000,36.0000000000,0.0000000000
1717675126993,224.0000000000,349.0000000000,377.0000000000,92.0000000000,36.0000000000,0.0000000000
1717675126994,222.0000000000,347.0000000000,376.0000000000,92.0000000000,36.0000000000,0.0000000000
1717675126994,220.0000000000,344.0000000000,374.0000000000,92.0000000000,36.0000000000,0.0000000000
1717675126994,219.0000000000,342.0000000000,371.0000000000,91.0000000000,36.0000000000,0.0000000000
1717675126994,217.0000000000,339.0000000000,368.0000000000,90.0000000000,35.0000000000,0.0000000000
1717675126995,216.0000000000,337.0000000000,366.0000000000,89.0000000000,35.0000000000,0.0000000000
1717675127025,215.0000000000,335.0000000000,364.0000000000,89.0000000000,35.0000000000,0.0000000000
1717675127027,214.0000000000,332.0000000000,363.0000000000,88.0000000000,35.0000000000,0.0000000000
1717675127027,212.0000000000,331.0000000000,359.0000000000,88.0000000000,35.0000000000,0.0000000000
1717675127027,211.0000000000,327.0000000000,358.0000000000,88.0000000000,35.0000000000,0.0000000000
1717675127027,210.0000000000,326.0000000000,355.0000000000,87.0000000000,35.0000000000,0.0000000000
1717675127027,209.0000000000,323.0000000000,353.0000000000,87.0000000000,34.0000000000,0.0000000000
1717675127028,207.0000000000,321.0000000000,351.0000000000,86.0000000000,33.0000000000,0.0000000000
1717675127028,207.0000000000,319.0000000000,349.0000000000,85.0000000000,33.0000000000,0.0000000000
1717675127028,205.0000000000,317.0000000000,347.0000000000,85.0000000000,33.0000000000,0.0000000000
1717675127029,204.0000000000,316.0000000000,345.0000000000,84.0000000000,33.0000000000,0.0000000000
1717675127029,203.0000000000,313.0000000000,344.0000000000,84.0000000000,33.0000000000,0.0000000000
1717675127029,201.0000000000,312.0000000000,342.0000000000,83.0000000000,32.0000000000,0.0000000000
1717675127030,199.0000000000,309.0000000000,339.0000000000,83.0000000000,33.0000000000,0.0000000000
1717675127030,199.0000000000,307.0000000000,353.0000000000,82.0000000000,32.0000000000,0.0000000000
1717675127030,198.0000000000,305.0000000000,421.0000000000,82.0000000000,31.0000000000,0.0000000000
1717675127031,197.0000000000,304.0000000000,418.0000000000,81.0000000000,31.0000000000,0.0000000000
1717675127031,195.0000000000,302.0000000000,414.0000000000,81.0000000000,31.0000000000,0.0000000000
1717675127031,253.0000000000,300.0000000000,411.0000000000,80.0000000000,31.0000000000,0.0000000000
1717675127031,300.0000000000,297.0000000000,427.0000000000,79.0000000000,31.0000000000,0.0000000000
1717675127031,297.0000000000,295.0000000000,435.0000000000,79.0000000000,31.0000000000,0.0000000000
1717675127031,294.0000000000,294.0000000000,433.0000000000,79.0000000000,31.0000000000,0.0000000000
1717675127047,292.0000000000,292.0000000000,428.0000000000,78.0000000000,31.0000000000,0.0000000000
1717675127047,290.0000000000,291.0000000000,425.0000000000,78.0000000000,35.0000000000,0.0000000000
1717675127047,287.0000000000,288.0000000000,423.0000000000,78.0000000000,35.0000000000,0.0000000000
1717675127047,286.0000000000,287.0000000000,419.0000000000,77.0000000000,35.0000000000,0.0000000000
1717675127048,284.0000000000,285.0000000000,415.0000000000,77.0000000000,34.0000000000,0.0000000000
1717675127048,282.0000000000,284.0000000000,412.0000000000,76.0000000000,35.0000000000,0.0000000000
1717675127048,280.0000000000,281.0000000000,408.0000000000,76.0000000000,35.0000000000,0.0000000000
1717675127048,278.0000000000,280.0000000000,407.0000000000,76.0000000000,33.0000000000,0.0000000000
1717675127048,276.0000000000,279.0000000000,403.0000000000,75.0000000000,34.0000000000,0.0000000000
1717675127062,342.0000000000,284.0000000000,401.0000000000,92.0000000000,33.0000000000,0.0000000000
1717675127063,376.0000000000,282.0000000000,471.0000000000,150.0000000000,33.0000000000,0.0000000000
1717675127063,371.0000000000,280.0000000000,465.0000000000,148.0000000000,33.0000000000,0.0000000000
1717675127063,368.0000000000,278.0000000000,463.0000000000,147.0000000000,32.0000000000,0.0000000000
1717675127063,364.0000000000,275.0000000000,457.0000000000,145.0000000000,33.0000000000,0.0000000000
1717675127064,361.0000000000,274.0000000000,454.0000000000,144.0000000000,32.0000000000,0.0000000000
1717675127064,358.0000000000,271.0000000000,469.0000000000,143.0000000000,31.0000000000,0.0000000000
1717675127064,355.0000000000,271.0000000000,466.0000000000,143.0000000000,31.0000000000,0.0000000000
1717675127064,352.0000000000,268.0000000000,462.0000000000,142.0000000000,31.0000000000,0.0000000000
1717675127079,350.0000000000,267.0000000000,457.0000000000,140.0000000000,31.0000000000,0.0000000000
1717675127080,347.0000000000,265.0000000000,454.0000000000,140.0000000000,31.0000000000,0.0000000000
1717675127080,344.0000000000,263.0000000000,451.0000000000,139.0000000000,31.0000000000,0.0000000000
1717675127080,342.0000000000,262.0000000000,447.0000000000,137.0000000000,31.0000000000,0.0000000000
1717675127080,339.0000000000,260.0000000000,443.0000000000,136.0000000000,31.0000000000,0.0000000000
1717675127080,337.0000000000,259.0000000000,440.0000000000,135.0000000000,31.0000000000,0.0000000000
1717675127080,335.0000000000,257.0000000000,435.0000000000,135.0000000000,31.0000000000,0.0000000000
1717675127080,332.0000000000,255.0000000000,432.0000000000,134.0000000000,30.0000000000,0.0000000000
1717675127095,329.0000000000,254.0000000000,428.0000000000,132.0000000000,30.0000000000,0.0000000000
1717675127095,327.0000000000,253.0000000000,425.0000000000,132.0000000000,30.0000000000,0.0000000000
1717675127096,325.0000000000,252.0000000000,422.0000000000,131.0000000000,30.0000000000,0.0000000000
1717675127096,323.0000000000,250.0000000000,419.0000000000,131.0000000000,30.0000000000,0.0000000000
1717675127096,319.0000000000,248.0000000000,415.0000000000,130.0000000000,30.0000000000,0.0000000000
1717675127097,318.0000000000,247.0000000000,412.0000000000,129.0000000000,29.0000000000,0.0000000000
1717675127097,316.0000000000,246.0000000000,409.0000000000,127.0000000000,29.0000000000,0.0000000000
1717675127097,313.0000000000,303.0000000000,407.0000000000,127.0000000000,28.0000000000,0.0000000000
1717675127097,312.0000000000,300.0000000000,404.0000000000,127.0000000000,28.0000000000,0.0000000000
1717675127112,309.0000000000,299.0000000000,400.0000000000,126.0000000000,28.0000000000,0.0000000000
1717675127113,307.0000000000,295.0000000000,398.0000000000,125.0000000000,28.0000000000,0.0000000000
1717675127113,305.0000000000,294.0000000000,395.0000000000,124.0000000000,28.0000000000,0.0000000000
1717675127113,303.0000000000,291.0000000000,391.0000000000,124.0000000000,28.0000000000,0.0000000000
1717675127113,301.0000000000,289.0000000000,390.0000000000,123.0000000000,28.0000000000,0.0000000000
1717675127113,299.0000000000,287.0000000000,387.0000000000,122.0000000000,27.0000000000,0.0000000000
1717675127113,296.0000000000,286.0000000000,384.0000000000,120.0000000000,27.0000000000,0.0000000000
1717675127113,295.0000000000,284.0000000000,381.0000000000,120.0000000000,27.0000000000,0.0000000000
1717675127113,293.0000000000,281.0000000000,379.0000000000,120.0000000000,27.0000000000,0.0000000000
1717675127130,291.0000000000,280.0000000000,376.0000000000,119.0000000000,26.0000000000,0.0000000000
1717675127131,289.0000000000,278.0000000000,374.0000000000,119.0000000000,27.0000000000,0.0000000000
1717675127131,287.0000000000,275.0000000000,371.0000000000,117.0000000000,27.0000000000,0.0000000000
1717675127131,286.0000000000,274.0000000000,368.0000000000,117.0000000000,26.0000000000,0.0000000000
1717675127131,283.0000000000,271.0000000000,366.0000000000,116.0000000000,25.0000000000,0.0000000000
1717675127132,281.0000000000,270.0000000000,364.0000000000,115.0000000000,25.0000000000,0.0000000000
1717675127132,280.0000000000,275.0000000000,361.0000000000,114.0000000000,25.0000000000,0.0000000000
1717675127132,278.0000000000,331.0000000000,390.0000000000,114.0000000000,25.0000000000,0.0000000000
1717675127132,276.0000000000,327.0000000000,387.0000000000,113.0000000000,25.0000000000,0.0000000000
1717675127132,275.0000000000,326.0000000000,472.0000000000,112.0000000000,25.0000000000,0.0000000000
1717675127132,272.0000000000,323.0000000000,498.0000000000,112.0000000000,24.0000000000,0.0000000000
1717675127146,271.0000000000,319.0000000000,493.0000000000,111.0000000000,24.0000000000,0.0000000000
1717675127147,270.0000000000,319.0000000000,487.0000000000,111.0000000000,24.0000000000,0.0000000000
1717675127147,268.0000000000,316.0000000000,483.0000000000,110.0000000000,24.0000000000,0.0000000000
1717675127147,265.0000000000,313.0000000000,480.0000000000,109.0000000000,24.0000000000,0.0000000000
1717675127147,263.0000000000,311.0000000000,476.0000000000,108.0000000000,24.0000000000,0.0000000000
1717675127147,263.0000000000,309.0000000000,472.0000000000,108.0000000000,24.0000000000,0.0000000000
1717675127148,260.0000000000,384.0000000000,467.0000000000,107.0000000000,24.0000000000,0.0000000000
1717675127148,280.0000000000,382.0000000000,464.0000000000,106.0000000000,24.0000000000,0.0000000000
1717675127148,311.0000000000,377.0000000000,460.0000000000,105.0000000000,24.0000000000,0.0000000000
1717675127163,308.0000000000,376.0000000000,455.0000000000,105.0000000000,23.0000000000,0.0000000000
1717675127164,306.0000000000,372.0000000000,452.0000000000,104.0000000000,24.0000000000,0.0000000000
1717675127164,304.0000000000,369.0000000000,450.0000000000,103.0000000000,24.0000000000,0.0000000000
1717675127164,301.0000000000,366.0000000000,446.0000000000,103.0000000000,24.0000000000,0.0000000000
1717675127164,299.0000000000,364.0000000000,442.0000000000,102.0000000000,24.0000000000,0.0000000000
1717675127164,295.0000000000,359.0000000000,439.0000000000,102.0000000000,23.0000000000,0.0000000000
1717675127164,294.0000000000,358.0000000000,435.0000000000,102.0000000000,24.0000000000,0.0000000000
1717675127165,292.0000000000,355.0000000000,432.0000000000,100.0000000000,23.0000000000,0.0000000000
1717675127182,290.0000000000,353.0000000000,429.0000000000,100.0000000000,23.0000000000,0.0000000000
1717675127183,287.0000000000,350.0000000000,425.0000000000,99.0000000000,23.0000000000,0.0000000000
1717675127183,286.0000000000,408.0000000000,423.0000000000,99.0000000000,23.0000000000,0.0000000000
1717675127184,284.0000000000,403.0000000000,419.0000000000,98.0000000000,23.0000000000,0.0000000000
1717675127184,282.0000000000,399.0000000000,417.0000000000,98.0000000000,22.0000000000,0.0000000000
1717675127184,280.0000000000,396.0000000000,414.0000000000,97.0000000000,23.0000000000,0.0000000000
1717675127184,279.0000000000,392.0000000000,411.0000000000,97.0000000000,23.0000000000,0.0000000000
1717675127184,276.0000000000,390.0000000000,408.0000000000,96.0000000000,22.0000000000,0.0000000000
1717675127184,275.0000000000,387.0000000000,405.0000000000,96.0000000000,22.0000000000,0.0000000000
1717675127184,273.0000000000,384.0000000000,432.0000000000,96.0000000000,22.0000000000,0.0000000000
1717675127184,271.0000000000,381.0000000000,437.0000000000,95.0000000000,22.0000000000,0.0000000000
1717675127185,270.0000000000,378.0000000000,433.0000000000,94.0000000000,22.0000000000,0.0000000000
1717675127199,268.0000000000,376.0000000000,431.0000000000,94.0000000000,22.0000000000,0.0000000000
1717675127199,265.0000000000,372.0000000000,427.0000000000,129.0000000000,22.0000000000,0.0000000000
1717675127200,263.0000000000,370.0000000000,423.0000000000,127.0000000000,21.0000000000,0.0000000000
1717675127201,263.0000000000,367.0000000000,447.0000000000,127.0000000000,22.0000000000,0.0000000000
1717675127201,261.0000000000,364.0000000000,442.0000000000,126.0000000000,22.0000000000,0.0000000000
1717675127201,259.0000000000,363.0000000000,439.0000000000,125.0000000000,21.0000000000,0.0000000000
1717675127201,257.0000000000,359.0000000000,434.0000000000,124.0000000000,20.0000000000,0.0000000000
1717675127202,255.0000000000,356.0000000000,432.0000000000,123.0000000000,21.0000000000,0.0000000000
1717675127202,254.0000000000,354.0000000000,428.0000000000,122.0000000000,20.0000000000,0.0000000000
1717675127227,252.0000000000,352.0000000000,423.0000000000,121.0000000000,20.0000000000,0.0000000000
1717675127229,251.0000000000,350.0000000000,420.0000000000,120.0000000000,20.0000000000,0.0000000000
1717675127229,249.0000000000,347.0000000000,418.0000000000,120.0000000000,20.0000000000,0.0000000000
1717675127229,248.0000000000,344.0000000000,415.0000000000,119.0000000000,20.0000000000,0.0000000000
1717675127230,247.0000000000,343.0000000000,412.0000000000,118.0000000000,19.0000000000,0.0000000000
1717675127230,245.0000000000,339.0000000000,408.0000000000,118.0000000000,19.0000000000,0.0000000000
1717675127230,243.0000000000,337.0000000000,406.0000000000,116.0000000000,19.0000000000,0.0000000000
1717675127231,242.0000000000,335.0000000000,402.0000000000,115.0000000000,19.0000000000,0.0000000000
1717675127231,240.0000000000,333.0000000000,399.0000000000,115.0000000000,19.0000000000,0.0000000000
1717675127231,240.0000000000,331.0000000000,396.0000000000,115.0000000000,19.0000000000,0.0000000000
1717675127231,238.0000000000,327.0000000000,393.0000000000,113.0000000000,19.0000000000,0.0000000000
1717675127232,236.0000000000,326.0000000000,391.0000000000,113.0000000000,19.0000000000,0.0000000000
1717675127232,235.0000000000,324.0000000000,388.0000000000,112.0000000000,19.0000000000,0.0000000000
1717675127232,233.0000000000,322.0000000000,385.0000000000,112.0000000000,19.0000000000,0.0000000000
1717675127233,231.0000000000,319.0000000000,384.0000000000,111.0000000000,19.0000000000,0.0000000000
1717675127234,231.0000000000,318.0000000000,417.0000000000,110.0000000000,18.0000000000,0.0000000000
1717675127234,280.0000000000,316.0000000000,413.0000000000,110.0000000000,18.0000000000,0.0000000000
1717675127265,278.0000000000,313.0000000000,409.0000000000,109.0000000000,18.0000000000,0.0000000000
1717675127266,275.0000000000,312.0000000000,407.0000000000,108.0000000000,18.0000000000,0.0000000000
1717675127266,273.0000000000,310.0000000000,403.0000000000,107.0000000000,18.0000000000,0.0000000000
1717675127267,271.0000000000,307.0000000000,399.0000000000,107.0000000000,18.0000000000,0.0000000000
1717675127267,270.0000000000,305.0000000000,396.0000000000,106.0000000000,18.0000000000,0.0000000000
1717675127267,268.0000000000,304.0000000000,393.0000000000,105.0000000000,18.0000000000,0.0000000000
1717675127267,265.0000000000,302.0000000000,391.0000000000,103.0000000000,18.0000000000,0.0000000000
1717675127268,263.0000000000,300.0000000000,387.0000000000,103.0000000000,17.0000000000,0.0000000000
1717675127268,262.0000000000,298.0000000000,384.0000000000,103.0000000000,17.0000000000,0.0000000000
1717675127268,259.0000000000,295.0000000000,415.0000000000,103.0000000000,18.0000000000,0.0000000000
1717675127269,258.0000000000,294.0000000000,413.0000000000,102.0000000000,18.0000000000,0.0000000000
1717675127269,255.0000000000,292.0000000000,409.0000000000,101.0000000000,18.0000000000,0.0000000000
1717675127269,255.0000000000,291.0000000000,406.0000000000,167.0000000000,18.0000000000,0.0000000000
1717675127269,253.0000000000,288.0000000000,403.0000000000,180.0000000000,18.0000000000,0.0000000000
1717675127270,252.0000000000,287.0000000000,399.0000000000,179.0000000000,17.0000000000,0.0000000000
1717675127270,249.0000000000,285.0000000000,396.0000000000,177.0000000000,18.0000000000,0.0000000000
1717675127270,248.0000000000,283.0000000000,393.0000000000,176.0000000000,17.0000000000,0.0000000000
1717675127271,246.0000000000,281.0000000000,390.0000000000,175.0000000000,17.0000000000,0.0000000000
1717675127271,244.0000000000,280.0000000000,387.0000000000,173.0000000000,17.0000000000,0.0000000000
1717675127271,243.0000000000,278.0000000000,425.0000000000,172.0000000000,17.0000000000,0.0000000000
1717675127295,241.0000000000,276.0000000000,420.0000000000,171.0000000000,18.0000000000,0.0000000000
1717675127296,240.0000000000,275.0000000000,417.0000000000,169.0000000000,18.0000000000,0.0000000000
1717675127297,238.0000000000,272.0000000000,415.0000000000,167.0000000000,18.0000000000,0.0000000000
1717675127297,236.0000000000,271.0000000000,411.0000000000,167.0000000000,17.0000000000,0.0000000000
1717675127298,235.0000000000,270.0000000000,407.0000000000,166.0000000000,17.0000000000,0.0000000000
1717675127298,233.0000000000,268.0000000000,403.0000000000,165.0000000000,17.0000000000,0.0000000000
1717675127298,231.0000000000,267.0000000000,401.0000000000,163.0000000000,17.0000000000,0.0000000000
1717675127298,231.0000000000,294.0000000000,399.0000000000,163.0000000000,17.0000000000,0.0000000000
1717675127299,230.0000000000,354.0000000000,395.0000000000,162.0000000000,17.0000000000,0.0000000000
1717675127299,227.0000000000,350.0000000000,391.0000000000,161.0000000000,17.0000000000,0.0000000000
1717675127299,226.0000000000,347.0000000000,389.0000000000,159.0000000000,17.0000000000,0.0000000000
1717675127299,225.0000000000,344.0000000000,386.0000000000,159.0000000000,17.0000000000,0.0000000000
1717675127300,224.0000000000,342.0000000000,384.0000000000,158.0000000000,16.0000000000,0.0000000000
1717675127300,222.0000000000,339.0000000000,380.0000000000,157.0000000000,16.0000000000,0.0000000000
1717675127301,221.0000000000,336.0000000000,377.0000000000,156.0000000000,17.0000000000,0.0000000000
1717675127323,220.0000000000,334.0000000000,376.0000000000,155.0000000000,16.0000000000,0.0000000000
1717675127323,219.0000000000,332.0000000000,372.0000000000,153.0000000000,16.0000000000,0.0000000000
1717675127324,217.0000000000,329.0000000000,369.0000000000,153.0000000000,16.0000000000,0.0000000000
1717675127324,216.0000000000,327.0000000000,367.0000000000,152.0000000000,16.0000000000,0.0000000000
1717675127324,215.0000000000,324.0000000000,390.0000000000,152.0000000000,15.0000000000,0.0000000000
1717675127325,214.0000000000,322.0000000000,460.0000000000,150.0000000000,15.0000000000,0.0000000000
1717675127325,212.0000000000,319.0000000000,455.0000000000,149.0000000000,15.0000000000,0.0000000000
1717675127325,211.0000000000,318.0000000000,451.0000000000,147.0000000000,15.0000000000,0.0000000000
1717675127326,209.0000000000,316.0000000000,448.0000000000,147.0000000000,15.0000000000,0.0000000000
1717675127326,208.0000000000,313.0000000000,444.0000000000,146.0000000000,15.0000000000,0.0000000000
1717675127326,207.0000000000,312.0000000000,440.0000000000,145.0000000000,15.0000000000,0.0000000000
1717675127326,206.0000000000,309.0000000000,436.0000000000,144.0000000000,15.0000000000,0.0000000000
1717675127327,205.0000000000,307.0000000000,433.0000000000,143.0000000000,15.0000000000,0.0000000000
1717675127350,204.0000000000,304.0000000000,430.0000000000,143.0000000000,15.0000000000,0.0000000000
1717675127352,203.0000000000,303.0000000000,426.0000000000,142.0000000000,15.0000000000,0.0000000000
1717675127353,201.0000000000,300.0000000000,423.0000000000,141.0000000000,15.0000000000,0.0000000000
1717675127353,200.0000000000,299.0000000000,419.0000000000,140.0000000000,15.0000000000,0.0000000000
1717675127354,199.0000000000,295.0000000000,417.0000000000,139.0000000000,15.0000000000,0.0000000000
1717675127354,199.0000000000,295.0000000000,414.0000000000,139.0000000000,20.0000000000,0.0000000000
1717675127355,197.0000000000,294.0000000000,409.0000000000,137.0000000000,19.0000000000,0.0000000000
1717675127355,196.0000000000,310.0000000000,417.0000000000,136.0000000000,19.0000000000,0.0000000000
1717675127356,195.0000000000,307.0000000000,572.0000000000,135.0000000000,19.0000000000,0.0000000000
1717675127356,193.0000000000,304.0000000000,563.0000000000,135.0000000000,19.0000000000,0.0000000000
1717675127356,193.0000000000,303.0000000000,558.0000000000,181.0000000000,19.0000000000,0.0000000000
1717675127357,192.0000000000,300.0000000000,551.0000000000,182.0000000000,19.0000000000,0.0000000000
1717675127357,191.0000000000,297.0000000000,548.0000000000,180.0000000000,19.0000000000,0.0000000000
1717675127358,286.0000000000,295.0000000000,543.0000000000,179.0000000000,19.0000000000,0.0000000000
1717675127359,310.0000000000,294.0000000000,537.0000000000,178.0000000000,19.0000000000,0.0000000000
1717675127359,307.0000000000,292.0000000000,587.0000000000,176.0000000000,24.0000000000,0.0000000000
1717675127359,304.0000000000,289.0000000000,582.0000000000,176.0000000000,24.0000000000,0.0000000000
1717675127359,302.0000000000,287.0000000000,575.0000000000,174.0000000000,24.0000000000,0.0000000000
1717675127376,299.0000000000,287.0000000000,568.0000000000,174.0000000000,24.0000000000,0.0000000000
1717675127379,295.0000000000,284.0000000000,563.0000000000,172.0000000000,24.0000000000,0.0000000000
1717675127379,294.0000000000,283.0000000000,559.0000000000,171.0000000000,24.0000000000,0.0000000000
1717675127379,292.0000000000,280.0000000000,553.0000000000,169.0000000000,24.0000000000,0.0000000000
1717675127380,290.0000000000,279.0000000000,548.0000000000,168.0000000000,24.0000000000,0.0000000000
1717675127380,359.0000000000,278.0000000000,619.0000000000,167.0000000000,24.0000000000,0.0000000000
1717675127380,427.0000000000,396.0000000000,639.0000000000,166.0000000000,23.0000000000,0.0000000000
1717675127380,422.0000000000,391.0000000000,632.0000000000,165.0000000000,23.0000000000,0.0000000000
1717675127380,417.0000000000,390.0000000000,662.0000000000,163.0000000000,23.0000000000,0.0000000000
1717675127380,415.0000000000,385.0000000000,654.0000000000,163.0000000000,22.0000000000,0.0000000000
1717675127381,411.0000000000,383.0000000000,647.0000000000,161.0000000000,23.0000000000,0.0000000000
1717675127381,408.0000000000,379.0000000000,641.0000000000,161.0000000000,22.0000000000,0.0000000000
1717675127381,403.0000000000,376.0000000000,634.0000000000,159.0000000000,22.0000000000,0.0000000000
1717675127396,399.0000000000,374.0000000000,627.0000000000,159.0000000000,22.0000000000,0.0000000000
1717675127396,397.0000000000,371.0000000000,623.0000000000,158.0000000000,22.0000000000,0.0000000000
1717675127396,395.0000000000,455.0000000000,616.0000000000,156.0000000000,22.0000000000,0.0000000000
1717675127396,391.0000000000,450.0000000000,610.0000000000,156.0000000000,22.0000000000,0.0000000000
1717675127397,387.0000000000,493.0000000000,604.0000000000,155.0000000000,21.0000000000,0.0000000000
1717675127397,385.0000000000,487.0000000000,600.0000000000,154.0000000000,21.0000000000,0.0000000000
1717675127397,382.0000000000,482.0000000000,593.0000000000,153.0000000000,21.0000000000,0.0000000000
1717675127397,379.0000000000,478.0000000000,588.0000000000,152.0000000000,20.0000000000,0.0000000000
1717675127397,376.0000000000,475.0000000000,582.0000000000,152.0000000000,21.0000000000,0.0000000000
1717675127433,372.0000000000,470.0000000000,576.0000000000,151.0000000000,20.0000000000,0.0000000000
1717675127434,370.0000000000,465.0000000000,572.0000000000,148.0000000000,20.0000000000,0.0000000000
1717675127434,368.0000000000,461.0000000000,568.0000000000,148.0000000000,20.0000000000,0.0000000000
1717675127434,364.0000000000,457.0000000000,561.0000000000,147.0000000000,19.0000000000,0.0000000000
1717675127434,362.0000000000,455.0000000000,557.0000000000,147.0000000000,19.0000000000,0.0000000000
1717675127435,359.0000000000,450.0000000000,553.0000000000,145.0000000000,19.0000000000,0.0000000000
1717675127435,357.0000000000,447.0000000000,548.0000000000,144.0000000000,19.0000000000,0.0000000000
1717675127435,355.0000000000,444.0000000000,543.0000000000,143.0000000000,19.0000000000,0.0000000000
1717675127435,352.0000000000,440.0000000000,539.0000000000,143.0000000000,19.0000000000,0.0000000000
1717675127436,350.0000000000,435.0000000000,535.0000000000,142.0000000000,19.0000000000,0.0000000000
1717675127436,347.0000000000,432.0000000000,530.0000000000,141.0000000000,19.0000000000,0.0000000000
1717675127436,344.0000000000,430.0000000000,526.0000000000,140.0000000000,19.0000000000,0.0000000000
1717675127436,455.0000000000,427.0000000000,601.0000000000,140.0000000000,19.0000000000,0.0000000000
1717675127436,492.0000000000,423.0000000000,630.0000000000,139.0000000000,19.0000000000,0.0000000000
1717675127436,487.0000000000,419.0000000000,623.0000000000,137.0000000000,19.0000000000,0.0000000000
1717675127437,483.0000000000,417.0000000000,615.0000000000,137.0000000000,18.0000000000,0.0000000000
1717675127437,479.0000000000,414.0000000000,609.0000000000,135.0000000000,19.0000000000,0.0000000000
1717675127437,473.0000000000,411.0000000000,604.0000000000,135.0000000000,18.0000000000,0.0000000000
1717675127437,470.0000000000,408.0000000000,599.0000000000,135.0000000000,18.0000000000,0.0000000000
1717675127453,465.0000000000,404.0000000000,592.0000000000,134.0000000000,18.0000000000,0.0000000000
1717675127454,462.0000000000,401.0000000000,587.0000000000,132.0000000000,18.0000000000,0.0000000000
1717675127454,457.0000000000,399.0000000000,582.0000000000,132.0000000000,17.0000000000,0.0000000000
1717675127455,454.0000000000,395.0000000000,577.0000000000,131.0000000000,17.0000000000,0.0000000000
1717675127455,450.0000000000,459.0000000000,571.0000000000,131.0000000000,17.0000000000,0.0000000000
1717675127455,446.0000000000,455.0000000000,566.0000000000,130.0000000000,17.0000000000,0.0000000000
1717675127455,442.0000000000,450.0000000000,562.0000000000,129.0000000000,17.0000000000,0.0000000000
1717675127455,439.0000000000,446.0000000000,556.0000000000,127.0000000000,17.0000000000,0.0000000000
1717675127455,435.0000000000,442.0000000000,551.0000000000,127.0000000000,17.0000000000,0.0000000000
1717675127456,432.0000000000,439.0000000000,547.0000000000,127.0000000000,16.0000000000,0.0000000000
1717675127456,428.0000000000,435.0000000000,542.0000000000,126.0000000000,17.0000000000,0.0000000000
1717675127473,424.0000000000,432.0000000000,538.0000000000,125.0000000000,16.0000000000,0.0000000000
1717675127475,422.0000000000,428.0000000000,533.0000000000,124.0000000000,17.0000000000,0.0000000000
1717675127475,418.0000000000,424.0000000000,528.0000000000,124.0000000000,16.0000000000,0.0000000000
1717675127475,415.0000000000,420.0000000000,524.0000000000,123.0000000000,16.0000000000,0.0000000000
1717675127475,412.0000000000,417.0000000000,519.0000000000,122.0000000000,15.0000000000,0.0000000000
1717675127476,408.0000000000,414.0000000000,515.0000000000,121.0000000000,16.0000000000,0.0000000000
1717675127476,406.0000000000,412.0000000000,511.0000000000,122.0000000000,15.0000000000,0.0000000000
1717675127476,403.0000000000,408.0000000000,508.0000000000,121.0000000000,15.0000000000,0.0000000000
1717675127476,399.0000000000,488.0000000000,504.0000000000,120.0000000000,16.0000000000,0.0000000000
1717675127477,396.0000000000,483.0000000000,500.0000000000,120.0000000000,15.0000000000,0.0000000000
1717675127477,393.0000000000,480.0000000000,496.0000000000,120.0000000000,15.0000000000,0.0000000000
1717675127509,391.0000000000,475.0000000000,492.0000000000,143.0000000000,15.0000000000,0.0000000000
1717675127509,387.0000000000,471.0000000000,488.0000000000,143.0000000000,15.0000000000,0.0000000000
1717675127510,384.0000000000,466.0000000000,484.0000000000,142.0000000000,15.0000000000,0.0000000000
1717675127510,382.0000000000,463.0000000000,480.0000000000,141.0000000000,15.0000000000,0.0000000000
1717675127510,380.0000000000,459.0000000000,477.0000000000,140.0000000000,15.0000000000,0.0000000000
1717675127510,376.0000000000,455.0000000000,473.0000000000,139.0000000000,15.0000000000,0.0000000000
1717675127510,374.0000000000,451.0000000000,471.0000000000,137.0000000000,15.0000000000,0.0000000000
1717675127510,371.0000000000,448.0000000000,467.0000000000,136.0000000000,15.0000000000,0.0000000000
1717675127510,368.0000000000,444.0000000000,463.0000000000,135.0000000000,15.0000000000,0.0000000000
1717675127510,366.0000000000,440.0000000000,460.0000000000,135.0000000000,17.0000000000,0.0000000000
1717675127510,364.0000000000,436.0000000000,456.0000000000,134.0000000000,17.0000000000,0.0000000000
1717675127510,360.0000000000,433.0000000000,453.0000000000,133.0000000000,17.0000000000,0.0000000000
1717675127511,358.0000000000,430.0000000000,450.0000000000,132.0000000000,17.0000000000,0.0000000000
1717675127511,355.0000000000,427.0000000000,447.0000000000,131.0000000000,17.0000000000,0.0000000000
1717675127511,353.0000000000,423.0000000000,444.0000000000,131.0000000000,17.0000000000,0.0000000000
1717675127511,352.0000000000,419.0000000000,440.0000000000,129.0000000000,17.0000000000,0.0000000000
1717675127511,348.0000000000,417.0000000000,437.0000000000,129.0000000000,17.0000000000,0.0000000000
1717675127511,345.0000000000,414.0000000000,434.0000000000,127.0000000000,17.0000000000,0.0000000000
1717675127525,344.0000000000,411.0000000000,432.0000000000,127.0000000000,16.0000000000,0.0000000000
1717675127526,342.0000000000,408.0000000000,428.0000000000,127.0000000000,16.0000000000,0.0000000000
1717675127526,339.0000000000,404.0000000000,425.0000000000,126.0000000000,15.0000000000,0.0000000000
1717675127526,337.0000000000,401.0000000000,422.0000000000,125.0000000000,16.0000000000,0.0000000000
1717675127526,335.0000000000,399.0000000000,419.0000000000,124.0000000000,15.0000000000,0.0000000000
1717675127526,332.0000000000,415.0000000000,417.0000000000,123.0000000000,15.0000000000,0.0000000000
1717675127526,463.0000000000,472.0000000000,418.0000000000,123.0000000000,15.0000000000,0.0000000000
1717675127526,589.0000000000,467.0000000000,448.0000000000,121.0000000000,15.0000000000,0.0000000000
1717675127527,581.0000000000,462.0000000000,444.0000000000,121.0000000000,15.0000000000,0.0000000000
1717675127542,575.0000000000,458.0000000000,440.0000000000,120.0000000000,15.0000000000,0.0000000000
1717675127542,569.0000000000,455.0000000000,436.0000000000,120.0000000000,15.0000000000,0.0000000000
1717675127542,563.0000000000,451.0000000000,432.0000000000,119.0000000000,15.0000000000,0.0000000000
1717675127543,558.0000000000,448.0000000000,430.0000000000,118.0000000000,15.0000000000,0.0000000000
1717675127543,551.0000000000,443.0000000000,426.0000000000,118.0000000000,15.0000000000,0.0000000000
1717675127543,547.0000000000,440.0000000000,422.0000000000,116.0000000000,15.0000000000,0.0000000000
1717675127543,542.0000000000,436.0000000000,419.0000000000,116.0000000000,16.0000000000,0.0000000000
1717675127544,536.0000000000,432.0000000000,415.0000000000,115.0000000000,15.0000000000,0.0000000000
1717675127561,531.0000000000,440.0000000000,412.0000000000,115.0000000000,15.0000000000,0.0000000000
1717675127562,527.0000000000,492.0000000000,409.0000000000,114.0000000000,15.0000000000,0.0000000000
1717675127562,521.0000000000,513.0000000000,480.0000000000,114.0000000000,15.0000000000,0.0000000000
1717675127563,518.0000000000,508.0000000000,556.0000000000,113.0000000000,15.0000000000,0.0000000000
1717675127563,513.0000000000,503.0000000000,551.0000000000,112.0000000000,15.0000000000,0.0000000000
1717675127563,508.0000000000,499.0000000000,543.0000000000,111.0000000000,15.0000000000,0.0000000000
1717675127564,504.0000000000,495.0000000000,539.0000000000,111.0000000000,16.0000000000,0.0000000000
1717675127564,499.0000000000,490.0000000000,535.0000000000,110.0000000000,17.0000000000,0.0000000000
1717675127564,495.0000000000,486.0000000000,529.0000000000,110.0000000000,17.0000000000,0.0000000000
1717675127564,491.0000000000,481.0000000000,524.0000000000,109.0000000000,17.0000000000,0.0000000000
1717675127565,487.0000000000,478.0000000000,519.0000000000,108.0000000000,16.0000000000,0.0000000000
1717675127565,482.0000000000,473.0000000000,515.0000000000,108.0000000000,16.0000000000,0.0000000000
1717675127565,478.0000000000,470.0000000000,511.0000000000,108.0000000000,16.0000000000,0.0000000000
1717675127582,475.0000000000,465.0000000000,507.0000000000,107.0000000000,16.0000000000,0.0000000000
1717675127582,471.0000000000,463.0000000000,502.0000000000,135.0000000000,15.0000000000,0.0000000000
1717675127582,467.0000000000,459.0000000000,498.0000000000,134.0000000000,15.0000000000,0.0000000000
1717675127582,463.0000000000,455.0000000000,495.0000000000,132.0000000000,17.0000000000,0.0000000000
1717675127582,460.0000000000,451.0000000000,491.0000000000,131.0000000000,19.0000000000,0.0000000000
1717675127582,455.0000000000,448.0000000000,486.0000000000,131.0000000000,19.0000000000,0.0000000000
1717675127583,452.0000000000,444.0000000000,481.0000000000,130.0000000000,18.0000000000,0.0000000000
1717675127583,448.0000000000,440.0000000000,479.0000000000,129.0000000000,19.0000000000,0.0000000000
1717675127583,445.0000000000,436.0000000000,475.0000000000,127.0000000000,19.0000000000,0.0000000000
1717675127597,441.0000000000,434.0000000000,471.0000000000,167.0000000000,19.0000000000,0.0000000000
1717675127598,439.0000000000,431.0000000000,467.0000000000,166.0000000000,18.0000000000,0.0000000000
1717675127598,435.0000000000,427.0000000000,463.0000000000,165.0000000000,18.0000000000,0.0000000000
1717675127598,432.0000000000,423.0000000000,460.0000000000,163.0000000000,18.0000000000,0.0000000000
1717675127598,428.0000000000,421.0000000000,455.0000000000,163.0000000000,17.0000000000,0.0000000000
1717675127599,425.0000000000,418.0000000000,452.0000000000,161.0000000000,17.0000000000,0.0000000000
1717675127599,422.0000000000,465.0000000000,451.0000000000,159.0000000000,17.0000000000,0.0000000000
1717675127599,419.0000000000,460.0000000000,447.0000000000,159.0000000000,18.0000000000,0.0000000000
1717675127599,415.0000000000,456.0000000000,443.0000000000,158.0000000000,17.0000000000,0.0000000000
1717675127615,412.0000000000,452.0000000000,440.0000000000,157.0000000000,17.0000000000,0.0000000000
1717675127616,409.0000000000,448.0000000000,436.0000000000,156.0000000000,17.0000000000,0.0000000000
1717675127616,407.0000000000,444.0000000000,433.0000000000,155.0000000000,17.0000000000,0.0000000000
1717675127616,403.0000000000,441.0000000000,430.0000000000,153.0000000000,17.0000000000,0.0000000000
1717675127616,401.0000000000,437.0000000000,427.0000000000,152.0000000000,16.0000000000,0.0000000000
1717675127616,398.0000000000,433.0000000000,423.0000000000,152.0000000000,17.0000000000,0.0000000000
1717675127617,395.0000000000,430.0000000000,420.0000000000,151.0000000000,16.0000000000,0.0000000000
1717675127617,391.0000000000,427.0000000000,417.0000000000,151.0000000000,16.0000000000,0.0000000000
1717675127618,390.0000000000,423.0000000000,415.0000000000,150.0000000000,16.0000000000,0.0000000000
1717675127619,386.0000000000,419.0000000000,412.0000000000,148.0000000000,15.0000000000,0.0000000000
1717675127620,384.0000000000,415.0000000000,408.0000000000,147.0000000000,15.0000000000,0.0000000000
1717675127645,381.0000000000,414.0000000000,406.0000000000,146.0000000000,15.0000000000,0.0000000000
1717675127645,379.0000000000,411.0000000000,403.0000000000,145.0000000000,16.0000000000,0.0000000000
1717675127645,376.0000000000,408.0000000000,400.0000000000,144.0000000000,15.0000000000,0.0000000000
1717675127646,374.0000000000,404.0000000000,398.0000000000,143.0000000000,15.0000000000,0.0000000000
1717675127646,371.0000000000,401.0000000000,395.0000000000,143.0000000000,15.0000000000,0.0000000000
1717675127646,368.0000000000,399.0000000000,391.0000000000,142.0000000000,15.0000000000,0.0000000000
1717675127646,366.0000000000,396.0000000000,390.0000000000,140.0000000000,15.0000000000,0.0000000000
1717675127646,363.0000000000,393.0000000000,387.0000000000,140.0000000000,18.0000000000,0.0000000000
1717675127646,359.0000000000,390.0000000000,385.0000000000,139.0000000000,17.0000000000,0.0000000000
1717675127647,359.0000000000,431.0000000000,382.0000000000,138.0000000000,18.0000000000,0.0000000000
1717675127647,355.0000000000,457.0000000000,380.0000000000,137.0000000000,17.0000000000,0.0000000000
1717675127647,353.0000000000,453.0000000000,377.0000000000,135.0000000000,17.0000000000,0.0000000000
1717675127647,351.0000000000,449.0000000000,375.0000000000,135.0000000000,17.0000000000,0.0000000000
1717675127662,348.0000000000,446.0000000000,372.0000000000,135.0000000000,17.0000000000,0.0000000000
1717675127662,347.0000000000,441.0000000000,370.0000000000,135.0000000000,17.0000000000,0.0000000000
1717675127662,344.0000000000,438.0000000000,368.0000000000,133.0000000000,17.0000000000,0.0000000000
1717675127663,342.0000000000,434.0000000000,366.0000000000,132.0000000000,17.0000000000,0.0000000000
1717675127663,340.0000000000,432.0000000000,363.0000000000,131.0000000000,17.0000000000,0.0000000000
1717675127663,338.0000000000,428.0000000000,359.0000000000,131.0000000000,17.0000000000,0.0000000000
1717675127663,335.0000000000,423.0000000000,359.0000000000,130.0000000000,17.0000000000,0.0000000000
1717675127664,333.0000000000,428.0000000000,356.0000000000,129.0000000000,17.0000000000,0.0000000000
1717675127664,331.0000000000,423.0000000000,354.0000000000,129.0000000000,17.0000000000,0.0000000000
1717675127664,329.0000000000,421.0000000000,352.0000000000,127.0000000000,17.0000000000,0.0000000000
1717675127664,327.0000000000,417.0000000000,350.0000000000,127.0000000000,17.0000000000,0.0000000000
1717675127681,324.0000000000,414.0000000000,348.0000000000,126.0000000000,16.0000000000,0.0000000000
1717675127682,323.0000000000,411.0000000000,345.0000000000,125.0000000000,16.0000000000,0.0000000000
1717675127682,321.0000000000,408.0000000000,344.0000000000,124.0000000000,16.0000000000,0.0000000000
1717675127682,319.0000000000,404.0000000000,342.0000000000,124.0000000000,16.0000000000,0.0000000000
1717675127682,317.0000000000,401.0000000000,366.0000000000,123.0000000000,16.0000000000,0.0000000000
1717675127682,315.0000000000,399.0000000000,362.0000000000,122.0000000000,16.0000000000,0.0000000000
1717675127682,312.0000000000,396.0000000000,359.0000000000,121.0000000000,15.0000000000,0.0000000000
1717675127683,311.0000000000,391.0000000000,356.0000000000,120.0000000000,16.0000000000,0.0000000000
1717675127683,308.0000000000,390.0000000000,354.0000000000,120.0000000000,15.0000000000,0.0000000000
1717675127697,307.0000000000,387.0000000000,352.0000000000,120.0000000000,15.0000000000,0.0000000000
1717675127698,305.0000000000,384.0000000000,348.0000000000,119.0000000000,15.0000000000,0.0000000000
1717675127699,304.0000000000,382.0000000000,345.0000000000,118.0000000000,15.0000000000,0.0000000000
1717675127699,302.0000000000,379.0000000000,344.0000000000,118.0000000000,15.0000000000,0.0000000000
1717675127699,300.0000000000,376.0000000000,342.0000000000,116.0000000000,15.0000000000,0.0000000000
1717675127699,297.0000000000,374.0000000000,339.0000000000,115.0000000000,16.0000000000,0.0000000000
1717675127699,295.0000000000,371.0000000000,337.0000000000,115.0000000000,18.0000000000,0.0000000000
1717675127699,294.0000000000,368.0000000000,335.0000000000,115.0000000000,17.0000000000,0.0000000000
1717675127716,292.0000000000,366.0000000000,333.0000000000,114.0000000000,17.0000000000,0.0000000000
1717675127718,291.0000000000,364.0000000000,332.0000000000,113.0000000000,17.0000000000,0.0000000000
1717675127718,289.0000000000,361.0000000000,328.0000000000,112.0000000000,17.0000000000,0.0000000000
1717675127718,287.0000000000,359.0000000000,327.0000000000,112.0000000000,17.0000000000,0.0000000000
1717675127719,286.0000000000,356.0000000000,325.0000000000,111.0000000000,17.0000000000,0.0000000000
1717675127719,284.0000000000,355.0000000000,323.0000000000,111.0000000000,17.0000000000,0.0000000000
1717675127719,282.0000000000,352.0000000000,321.0000000000,110.0000000000,17.0000000000,0.0000000000
1717675127719,280.0000000000,350.0000000000,319.0000000000,110.0000000000,17.0000000000,0.0000000000
1717675127720,280.0000000000,347.0000000000,318.0000000000,108.0000000000,16.0000000000,0.0000000000
1717675127720,277.0000000000,345.0000000000,316.0000000000,108.0000000000,17.0000000000,0.0000000000
1717675127720,275.0000000000,344.0000000000,313.0000000000,107.0000000000,16.0000000000,0.0000000000
1717675127750,273.0000000000,340.0000000000,312.0000000000,107.0000000000,17.0000000000,0.0000000000
1717675127751,272.0000000000,338.0000000000,311.0000000000,105.0000000000,15.0000000000,0.0000000000
1717675127751,271.0000000000,335.0000000000,308.0000000000,105.0000000000,15.0000000000,0.0000000000
1717675127751,269.0000000000,334.0000000000,307.0000000000,105.0000000000,15.0000000000,0.0000000000
1717675127751,268.0000000000,332.0000000000,304.0000000000,103.0000000000,16.0000000000,0.0000000000
1717675127751,265.0000000000,330.0000000000,304.0000000000,103.0000000000,15.0000000000,0.0000000000
1717675127752,300.0000000000,327.0000000000,302.0000000000,103.0000000000,15.0000000000,0.0000000000
1717675127752,297.0000000000,326.0000000000,300.0000000000,102.0000000000,15.0000000000,0.0000000000
1717675127752,295.0000000000,324.0000000000,297.0000000000,102.0000000000,15.0000000000,0.0000000000
1717675127752,292.0000000000,321.0000000000,295.0000000000,102.0000000000,17.0000000000,0.0000000000
1717675127752,291.0000000000,319.0000000000,295.0000000000,100.0000000000,17.0000000000,0.0000000000
1717675127752,288.0000000000,319.0000000000,351.0000000000,100.0000000000,17.0000000000,0.0000000000
1717675127752,287.0000000000,316.0000000000,347.0000000000,99.0000000000,16.0000000000,0.0000000000
1717675127752,284.0000000000,313.0000000000,344.0000000000,99.0000000000,16.0000000000,0.0000000000
1717675127752,282.0000000000,312.0000000000,342.0000000000,99.0000000000,16.0000000000,0.0000000000
1717675127752,280.0000000000,311.0000000000,339.0000000000,98.0000000000,16.0000000000,0.0000000000
1717675127752,279.0000000000,308.0000000000,337.0000000000,97.0000000000,16.0000000000,0.0000000000
1717675127753,276.0000000000,307.0000000000,335.0000000000,97.0000000000,16.0000000000,0.0000000000
1717675127769,274.0000000000,305.0000000000,376.0000000000,96.0000000000,15.0000000000,0.0000000000
1717675127771,273.0000000000,304.0000000000,371.0000000000,96.0000000000,15.0000000000,0.0000000000
1717675127772,271.0000000000,302.0000000000,388.0000000000,96.0000000000,15.0000000000,0.0000000000
1717675127772,269.0000000000,300.0000000000,496.0000000000,95.0000000000,15.0000000000,0.0000000000
1717675127773,268.0000000000,298.0000000000,492.0000000000,94.0000000000,15.0000000000,0.0000000000
1717675127774,265.0000000000,295.0000000000,487.0000000000,94.0000000000,15.0000000000,0.0000000000
1717675127774,263.0000000000,295.0000000000,483.0000000000,94.0000000000,15.0000000000,0.0000000000
1717675127775,263.0000000000,292.0000000000,480.0000000000,92.0000000000,15.0000000000,0.0000000000
1717675127775,261.0000000000,291.0000000000,475.0000000000,92.0000000000,15.0000000000,0.0000000000
1717675127776,259.0000000000,289.0000000000,472.0000000000,92.0000000000,15.0000000000,0.0000000000
1717675127777,304.0000000000,287.0000000000,468.0000000000,99.0000000000,15.0000000000,0.0000000000
1717675127778,316.0000000000,286.0000000000,463.0000000000,99.0000000000,15.0000000000,0.0000000000
1717675127779,313.0000000000,284.0000000000,461.0000000000,98.0000000000,15.0000000000,0.0000000000
1717675127780,311.0000000000,284.0000000000,457.0000000000,98.0000000000,15.0000000000,0.0000000000
1717675127781,308.0000000000,281.0000000000,454.0000000000,97.0000000000,14.0000000000,0.0000000000
1717675127781,306.0000000000,280.0000000000,450.0000000000,96.0000000000,14.0000000000,0.0000000000
1717675127782,304.0000000000,279.0000000000,446.0000000000,96.0000000000,14.0000000000,0.0000000000
1717675127782,301.0000000000,276.0000000000,444.0000000000,96.0000000000,15.0000000000,0.0000000000
1717675127782,299.0000000000,275.0000000000,440.0000000000,95.0000000000,14.0000000000,0.0000000000
1717675127803,297.0000000000,273.0000000000,437.0000000000,94.0000000000,14.0000000000,0.0000000000
1717675127804,295.0000000000,273.0000000000,433.0000000000,94.0000000000,14.0000000000,0.0000000000
1717675127804,292.0000000000,271.0000000000,431.0000000000,93.0000000000,14.0000000000,0.0000000000
1717675127804,291.0000000000,270.0000000000,428.0000000000,92.0000000000,14.0000000000,0.0000000000
1717675127804,289.0000000000,268.0000000000,423.0000000000,92.0000000000,14.0000000000,0.0000000000
1717675127805,287.0000000000,266.0000000000,422.0000000000,92.0000000000,14.0000000000,0.0000000000
1717675127805,285.0000000000,265.0000000000,418.0000000000,91.0000000000,14.0000000000,0.0000000000
1717675127805,283.0000000000,263.0000000000,457.0000000000,91.0000000000,14.0000000000,0.0000000000
1717675127805,281.0000000000,262.0000000000,453.0000000000,90.0000000000,14.0000000000,0.0000000000
1717675127805,280.0000000000,261.0000000000,448.0000000000,89.0000000000,13.0000000000,0.0000000000
1717675127805,278.0000000000,259.0000000000,446.0000000000,89.0000000000,13.0000000000,0.0000000000
1717675127825,275.0000000000,257.0000000000,441.0000000000,88.0000000000,13.0000000000,0.0000000000
1717675127826,273.0000000000,255.0000000000,439.0000000000,88.0000000000,13.0000000000,0.0000000000
1717675127826,271.0000000000,255.0000000000,435.0000000000,88.0000000000,12.0000000000,0.0000000000
1717675127826,270.0000000000,254.0000000000,431.0000000000,87.0000000000,13.0000000000,0.0000000000
1717675127826,268.0000000000,252.0000000000,428.0000000000,87.0000000000,13.0000000000,0.0000000000
1717675127826,267.0000000000,252.0000000000,424.0000000000,86.0000000000,12.0000000000,0.0000000000
1717675127826,265.0000000000,249.0000000000,422.0000000000,86.0000000000,13.0000000000,0.0000000000
1717675127826,263.0000000000,248.0000000000,419.0000000000,85.0000000000,12.0000000000,0.0000000000
1717675127827,262.0000000000,248.0000000000,415.0000000000,85.0000000000,12.0000000000,0.0000000000
1717675127827,259.0000000000,246.0000000000,413.0000000000,84.0000000000,12.0000000000,0.0000000000
1717675127827,259.0000000000,244.0000000000,409.0000000000,84.0000000000,12.0000000000,0.0000000000
1717675127827,257.0000000000,243.0000000000,408.0000000000,83.0000000000,12.0000000000,0.0000000000
1717675127827,255.0000000000,242.0000000000,404.0000000000,83.0000000000,12.0000000000,0.0000000000
1717675127827,254.0000000000,240.0000000000,401.0000000000,83.0000000000,12.0000000000,0.0000000000
1717675127906,252.0000000000,239.0000000000,399.0000000000,82.0000000000,12.0000000000,0.0000000000
1717675127909,252.0000000000,239.0000000000,483.0000000000,82.0000000000,12.0000000000,0.0000000000
1717675127910,250.0000000000,237.0000000000,479.0000000000,81.0000000000,12.0000000000,0.0000000000
1717675127911,248.0000000000,236.0000000000,474.0000000000,81.0000000000,12.0000000000,0.0000000000
1717675127912,301.0000000000,235.0000000000,472.0000000000,80.0000000000,12.0000000000,0.0000000000
1717675127913,298.0000000000,233.0000000000,467.0000000000,79.0000000000,12.0000000000,0.0000000000
1717675127914,295.0000000000,284.0000000000,463.0000000000,79.0000000000,12.0000000000,0.0000000000
1717675127915,294.0000000000,281.0000000000,460.0000000000,79.0000000000,12.0000000000,0.0000000000
1717675127916,291.0000000000,280.0000000000,455.0000000000,79.0000000000,11.0000000000,0.0000000000
1717675127917,289.0000000000,276.0000000000,453.0000000000,79.0000000000,12.0000000000,0.0000000000
1717675127918,287.0000000000,275.0000000000,449.0000000000,78.0000000000,11.0000000000,0.0000000000
1717675127919,285.0000000000,273.0000000000,447.0000000000,105.0000000000,11.0000000000,0.0000000000
1717675127920,283.0000000000,271.0000000000,443.0000000000,103.0000000000,17.0000000000,0.0000000000
1717675127921,281.0000000000,269.0000000000,439.0000000000,103.0000000000,17.0000000000,0.0000000000
1717675127922,280.0000000000,268.0000000000,435.0000000000,103.0000000000,16.0000000000,0.0000000000
1717675127922,276.0000000000,265.0000000000,432.0000000000,102.0000000000,16.0000000000,0.0000000000
1717675127922,275.0000000000,263.0000000000,429.0000000000,101.0000000000,15.0000000000,0.0000000000
1717675127923,273.0000000000,262.0000000000,521.0000000000,100.0000000000,15.0000000000,0.0000000000
1717675127923,271.0000000000,260.0000000000,515.0000000000,99.0000000000,15.0000000000,0.0000000000
1717675127924,269.0000000000,259.0000000000,511.0000000000,99.0000000000,15.0000000000,0.0000000000
1717675127925,359.0000000000,305.0000000000,507.0000000000,98.0000000000,15.0000000000,0.0000000000
1717675127925,393.0000000000,335.0000000000,502.0000000000,98.0000000000,15.0000000000,0.0000000000
1717675127926,390.0000000000,332.0000000000,498.0000000000,97.0000000000,15.0000000000,0.0000000000
1717675127927,386.0000000000,329.0000000000,494.0000000000,96.0000000000,15.0000000000,0.0000000000
1717675127928,383.0000000000,327.0000000000,491.0000000000,102.0000000000,18.0000000000,0.0000000000
1717675127929,380.0000000000,324.0000000000,487.0000000000,103.0000000000,32.0000000000,0.0000000000
1717675127930,376.0000000000,323.0000000000,481.0000000000,103.0000000000,32.0000000000,0.0000000000
1717675127930,374.0000000000,319.0000000000,478.0000000000,103.0000000000,32.0000000000,0.0000000000
1717675127931,370.0000000000,318.0000000000,475.0000000000,102.0000000000,32.0000000000,0.0000000000
1717675127932,367.0000000000,315.0000000000,471.0000000000,101.0000000000,31.0000000000,0.0000000000
1717675127933,364.0000000000,313.0000000000,466.0000000000,100.0000000000,31.0000000000,0.0000000000
1717675127934,361.0000000000,313.0000000000,463.0000000000,99.0000000000,31.0000000000,0.0000000000
1717675127935,370.0000000000,311.0000000000,460.0000000000,99.0000000000,31.0000000000,0.0000000000
1717675127935,368.0000000000,309.0000000000,455.0000000000,98.0000000000,31.0000000000,0.0000000000
1717675127936,364.0000000000,307.0000000000,453.0000000000,98.0000000000,31.0000000000,0.0000000000
1717675127937,361.0000000000,305.0000000000,449.0000000000,97.0000000000,31.0000000000,0.0000000000
1717675127938,359.0000000000,303.0000000000,446.0000000000,97.0000000000,31.0000000000,0.0000000000
1717675127938,355.0000000000,301.0000000000,443.0000000000,96.0000000000,31.0000000000,0.0000000000
1717675127939,353.0000000000,299.0000000000,440.0000000000,96.0000000000,30.0000000000,0.0000000000
1717675127939,351.0000000000,296.0000000000,436.0000000000,95.0000000000,30.0000000000,0.0000000000
1717675127940,348.0000000000,295.0000000000,432.0000000000,94.0000000000,30.0000000000,0.0000000000
1717675127941,346.0000000000,293.0000000000,430.0000000000,94.0000000000,30.0000000000,0.0000000000
1717675127942,344.0000000000,291.0000000000,427.0000000000,93.0000000000,30.0000000000,0.0000000000
1717675127943,341.0000000000,289.0000000000,423.0000000000,93.0000000000,29.0000000000,0.0000000000
1717675127943,339.0000000000,287.0000000000,421.0000000000,113.0000000000,29.0000000000,0.0000000000
1717675127944,336.0000000000,285.0000000000,417.0000000000,113.0000000000,29.0000000000,0.0000000000
1717675127945,334.0000000000,284.0000000000,415.0000000000,112.0000000000,28.0000000000,0.0000000000
1717675127946,332.0000000000,281.0000000000,412.0000000000,111.0000000000,28.0000000000,0.0000000000
1717675127946,329.0000000000,280.0000000000,409.0000000000,111.0000000000,28.0000000000,0.0000000000
1717675127947,327.0000000000,278.0000000000,406.0000000000,110.0000000000,28.0000000000,0.0000000000
1717675127947,324.0000000000,276.0000000000,403.0000000000,110.0000000000,28.0000000000,0.0000000000
1717675127948,355.0000000000,275.0000000000,399.0000000000,108.0000000000,28.0000000000,0.0000000000
1717675127948,352.0000000000,275.0000000000,398.0000000000,108.0000000000,28.0000000000,0.0000000000
1717675127949,348.0000000000,315.0000000000,395.0000000000,107.0000000000,27.0000000000,0.0000000000
1717675127949,345.0000000000,312.0000000000,391.0000000000,106.0000000000,27.0000000000,0.0000000000
1717675127950,344.0000000000,310.0000000000,389.0000000000,105.0000000000,27.0000000000,0.0000000000
1717675127950,340.0000000000,307.0000000000,387.0000000000,104.0000000000,27.0000000000,0.0000000000
1717675127951,337.0000000000,305.0000000000,384.0000000000,103.0000000000,27.0000000000,0.0000000000
1717675127952,335.0000000000,303.0000000000,492.0000000000,103.0000000000,26.0000000000,0.0000000000
1717675127953,332.0000000000,301.0000000000,487.0000000000,103.0000000000,26.0000000000,0.0000000000
1717675127954,329.0000000000,299.0000000000,483.0000000000,102.0000000000,26.0000000000,0.0000000000
1717675127955,327.0000000000,295.0000000000,480.0000000000,102.0000000000,26.0000000000,0.0000000000
1717675127956,325.0000000000,295.0000000000,475.0000000000,100.0000000000,25.0000000000,0.0000000000
1717675127957,323.0000000000,292.0000000000,471.0000000000,99.0000000000,25.0000000000,0.0000000000
1717675127958,319.0000000000,290.0000000000,467.0000000000,99.0000000000,25.0000000000,0.0000000000
1717675127958,319.0000000000,287.0000000000,463.0000000000,99.0000000000,25.0000000000,0.0000000000
1717675127959,316.0000000000,286.0000000000,460.0000000000,99.0000000000,24.0000000000,0.0000000000
1717675127960,315.0000000000,284.0000000000,456.0000000000,97.0000000000,25.0000000000,0.0000000000
1717675127961,312.0000000000,283.0000000000,453.0000000000,97.0000000000,25.0000000000,0.0000000000
1717675127961,311.0000000000,281.0000000000,449.0000000000,96.0000000000,24.0000000000,0.0000000000
1717675127962,308.0000000000,280.0000000000,446.0000000000,96.0000000000,24.0000000000,0.0000000000
1717675127962,306.0000000000,280.0000000000,443.0000000000,95.0000000000,24.0000000000,0.0000000000
1717675127962,304.0000000000,280.0000000000,440.0000000000,95.0000000000,24.0000000000,0.0000000000
1717675127963,302.0000000000,278.0000000000,436.0000000000,94.0000000000,24.0000000000,0.0000000000
1717675127986,300.0000000000,275.0000000000,433.0000000000,94.0000000000,24.0000000000,0.0000000000
1717675127988,299.0000000000,274.0000000000,446.0000000000,93.0000000000,24.0000000000,0.0000000000
1717675127989,295.0000000000,271.0000000000,457.0000000000,92.0000000000,24.0000000000,0.0000000000
1717675127989,295.0000000000,355.0000000000,453.0000000000,92.0000000000,24.0000000000,0.0000000000
1717675127990,292.0000000000,351.0000000000,449.0000000000,92.0000000000,24.0000000000,0.0000000000
1717675127990,291.0000000000,348.0000000000,446.0000000000,91.0000000000,24.0000000000,0.0000000000
1717675127992,289.0000000000,345.0000000000,443.0000000000,90.0000000000,24.0000000000,0.0000000000
1717675127992,287.0000000000,343.0000000000,440.0000000000,89.0000000000,23.0000000000,0.0000000000
1717675127993,286.0000000000,340.0000000000,435.0000000000,89.0000000000,23.0000000000,0.0000000000
1717675127993,284.0000000000,337.0000000000,432.0000000000,89.0000000000,23.0000000000,0.0000000000
1717675127994,281.0000000000,335.0000000000,429.0000000000,88.0000000000,23.0000000000,0.0000000000
1717675127994,280.0000000000,333.0000000000,425.0000000000,88.0000000000,23.0000000000,0.0000000000
1717675127995,279.0000000000,331.0000000000,423.0000000000,88.0000000000,22.0000000000,0.0000000000
1717675127995,277.0000000000,328.0000000000,455.0000000000,87.0000000000,22.0000000000,0.0000000000
1717675127996,275.0000000000,326.0000000000,452.0000000000,86.0000000000,22.0000000000,0.0000000000
1717675127996,273.0000000000,324.0000000000,448.0000000000,86.0000000000,22.0000000000,0.0000000000
1717675127997,271.0000000000,321.0000000000,444.0000000000,85.0000000000,22.0000000000,0.0000000000
1717675127997,270.0000000000,319.0000000000,441.0000000000,85.0000000000,23.0000000000,0.0000000000
1717675128041,269.0000000000,318.0000000000,438.0000000000,164.0000000000,23.0000000000,0.0000000000
1717675128042,267.0000000000,315.0000000000,433.0000000000,161.0000000000,22.0000000000,0.0000000000
1717675128042,265.0000000000,312.0000000000,431.0000000000,159.0000000000,22.0000000000,0.0000000000
1717675128043,263.0000000000,311.0000000000,427.0000000000,159.0000000000,22.0000000000,0.0000000000
1717675128043,262.0000000000,309.0000000000,423.0000000000,158.0000000000,22.0000000000,0.0000000000
1717675128043,260.0000000000,307.0000000000,419.0000000000,156.0000000000,22.0000000000,0.0000000000
1717675128043,259.0000000000,304.0000000000,417.0000000000,155.0000000000,22.0000000000,0.0000000000
1717675128044,257.0000000000,302.0000000000,414.0000000000,154.0000000000,21.0000000000,0.0000000000
1717675128044,255.0000000000,301.0000000000,411.0000000000,153.0000000000,21.0000000000,0.0000000000
1717675128044,254.0000000000,299.0000000000,408.0000000000,152.0000000000,21.0000000000,0.0000000000
1717675128044,252.0000000000,295.0000000000,405.0000000000,151.0000000000,21.0000000000,0.0000000000
1717675128045,251.0000000000,295.0000000000,401.0000000000,150.0000000000,20.0000000000,0.0000000000
1717675128045,249.0000000000,292.0000000000,425.0000000000,149.0000000000,20.0000000000,0.0000000000
1717675128045,248.0000000000,291.0000000000,422.0000000000,148.0000000000,20.0000000000,0.0000000000
1717675128045,246.0000000000,287.0000000000,419.0000000000,147.0000000000,20.0000000000,0.0000000000
1717675128045,244.0000000000,287.0000000000,415.0000000000,146.0000000000,19.0000000000,0.0000000000
1717675128046,243.0000000000,285.0000000000,412.0000000000,145.0000000000,20.0000000000,0.0000000000
1717675128046,242.0000000000,283.0000000000,408.0000000000,144.0000000000,20.0000000000,0.0000000000
1717675128046,241.0000000000,281.0000000000,406.0000000000,143.0000000000,19.0000000000,0.0000000000
1717675128047,239.0000000000,280.0000000000,402.0000000000,142.0000000000,19.0000000000,0.0000000000
1717675128047,238.0000000000,278.0000000000,399.0000000000,142.0000000000,19.0000000000,0.0000000000
1717675128048,236.0000000000,275.0000000000,396.0000000000,141.0000000000,19.0000000000,0.0000000000
1717675128048,236.0000000000,325.0000000000,393.0000000000,140.0000000000,19.0000000000,0.0000000000
1717675128048,234.0000000000,367.0000000000,391.0000000000,139.0000000000,19.0000000000,0.0000000000
1717675128049,233.0000000000,365.0000000000,387.0000000000,138.0000000000,19.0000000000,0.0000000000
1717675128049,231.0000000000,361.0000000000,385.0000000000,137.0000000000,19.0000000000,0.0000000000
1717675128049,231.0000000000,359.0000000000,427.0000000000,135.0000000000,19.0000000000,0.0000000000
1717675128050,229.0000000000,355.0000000000,422.0000000000,135.0000000000,19.0000000000,0.0000000000
1717675128050,227.0000000000,353.0000000000,419.0000000000,135.0000000000,19.0000000000,0.0000000000
1717675128075,227.0000000000,351.0000000000,426.0000000000,134.0000000000,19.0000000000,0.0000000000
1717675128077,225.0000000000,348.0000000000,484.0000000000,133.0000000000,28.0000000000,0.0000000000
1717675128078,224.0000000000,344.0000000000,480.0000000000,132.0000000000,27.0000000000,0.0000000000
1717675128078,223.0000000000,343.0000000000,474.0000000000,131.0000000000,27.0000000000,0.0000000000
1717675128079,222.0000000000,339.0000000000,470.0000000000,131.0000000000,27.0000000000,0.0000000000
1717675128079,220.0000000000,337.0000000000,466.0000000000,129.0000000000,27.0000000000,0.0000000000
1717675128080,219.0000000000,335.0000000000,463.0000000000,128.0000000000,27.0000000000,0.0000000000
1717675128080,218.0000000000,332.0000000000,459.0000000000,127.0000000000,25.0000000000,0.0000000000
1717675128080,217.0000000000,331.0000000000,455.0000000000,127.0000000000,25.0000000000,0.0000000000
1717675128080,216.0000000000,327.0000000000,451.0000000000,127.0000000000,25.0000000000,0.0000000000
1717675128081,215.0000000000,326.0000000000,448.0000000000,126.0000000000,25.0000000000,0.0000000000
1717675128081,214.0000000000,323.0000000000,444.0000000000,125.0000000000,25.0000000000,0.0000000000
1717675128081,212.0000000000,321.0000000000,440.0000000000,124.0000000000,25.0000000000,0.0000000000
1717675128082,211.0000000000,319.0000000000,436.0000000000,124.0000000000,25.0000000000,0.0000000000
1717675128082,209.0000000000,324.0000000000,504.0000000000,123.0000000000,24.0000000000,0.0000000000
1717675128082,209.0000000000,322.0000000000,529.0000000000,121.0000000000,24.0000000000,0.0000000000
1717675128083,207.0000000000,319.0000000000,524.0000000000,121.0000000000,24.0000000000,0.0000000000
1717675128100,275.0000000000,318.0000000000,519.0000000000,178.0000000000,24.0000000000,0.0000000000
1717675128101,443.0000000000,316.0000000000,515.0000000000,262.0000000000,24.0000000000,0.0000000000
1717675128101,435.0000000000,312.0000000000,510.0000000000,259.0000000000,24.0000000000,0.0000000000
1717675128101,430.0000000000,312.0000000000,505.0000000000,257.0000000000,24.0000000000,0.0000000000
1717675128101,427.0000000000,310.0000000000,500.0000000000,255.0000000000,24.0000000000,0.0000000000
1717675128101,423.0000000000,307.0000000000,497.0000000000,253.0000000000,24.0000000000,0.0000000000
1717675128102,419.0000000000,304.0000000000,493.0000000000,251.0000000000,24.0000000000,0.0000000000
1717675128102,415.0000000000,303.0000000000,487.0000000000,249.0000000000,23.0000000000,0.0000000000
1717675128102,412.0000000000,300.0000000000,484.0000000000,248.0000000000,23.0000000000,0.0000000000
1717675128102,408.0000000000,299.0000000000,481.0000000000,245.0000000000,23.0000000000,0.0000000000
1717675128102,404.0000000000,295.0000000000,477.0000000000,243.0000000000,23.0000000000,0.0000000000
1717675128122,401.0000000000,295.0000000000,472.0000000000,243.0000000000,23.0000000000,0.0000000000
1717675128123,398.0000000000,293.0000000000,468.0000000000,240.0000000000,22.0000000000,0.0000000000
1717675128123,395.0000000000,291.0000000000,465.0000000000,239.0000000000,22.0000000000,0.0000000000
1717675128123,391.0000000000,289.0000000000,462.0000000000,237.0000000000,22.0000000000,0.0000000000
1717675128123,389.0000000000,287.0000000000,457.0000000000,235.0000000000,22.0000000000,0.0000000000
1717675128123,386.0000000000,286.0000000000,455.0000000000,234.0000000000,22.0000000000,0.0000000000
1717675128124,384.0000000000,284.0000000000,451.0000000000,231.0000000000,22.0000000000,0.0000000000
1717675128124,380.0000000000,281.0000000000,511.0000000000,231.0000000000,22.0000000000,0.0000000000
1717675128124,377.0000000000,280.0000000000,539.0000000000,230.0000000000,22.0000000000,0.0000000000
1717675128124,374.0000000000,278.0000000000,534.0000000000,228.0000000000,21.0000000000,0.0000000000
1717675128124,371.0000000000,276.0000000000,528.0000000000,226.0000000000,21.0000000000,0.0000000000
1717675128144,368.0000000000,275.0000000000,524.0000000000,224.0000000000,21.0000000000,0.0000000000
1717675128146,366.0000000000,272.0000000000,519.0000000000,224.0000000000,21.0000000000,0.0000000000
1717675128147,363.0000000000,271.0000000000,514.0000000000,222.0000000000,20.0000000000,0.0000000000
1717675128147,360.0000000000,270.0000000000,510.0000000000,221.0000000000,20.0000000000,0.0000000000
1717675128148,358.0000000000,268.0000000000,507.0000000000,219.0000000000,20.0000000000,0.0000000000
1717675128148,355.0000000000,351.0000000000,502.0000000000,217.0000000000,20.0000000000,0.0000000000
1717675128148,353.0000000000,348.0000000000,497.0000000000,216.0000000000,20.0000000000,0.0000000000
1717675128148,351.0000000000,344.0000000000,493.0000000000,215.0000000000,31.0000000000,0.0000000000
1717675128149,348.0000000000,342.0000000000,489.0000000000,214.0000000000,31.0000000000,0.0000000000
1717675128149,345.0000000000,339.0000000000,486.0000000000,211.0000000000,31.0000000000,0.0000000000
1717675128149,344.0000000000,337.0000000000,481.0000000000,211.0000000000,30.0000000000,0.0000000000
1717675128150,340.0000000000,334.0000000000,477.0000000000,209.0000000000,30.0000000000,0.0000000000
1717675128150,338.0000000000,332.0000000000,473.0000000000,207.0000000000,30.0000000000,0.0000000000
1717675128181,335.0000000000,328.0000000000,470.0000000000,207.0000000000,30.0000000000,0.0000000000
1717675128183,334.0000000000,327.0000000000,467.0000000000,206.0000000000,30.0000000000,0.0000000000
1717675128183,431.0000000000,403.0000000000,463.0000000000,204.0000000000,29.0000000000,0.0000000000
1717675128184,425.0000000000,399.0000000000,460.0000000000,203.0000000000,29.0000000000,0.0000000000
1717675128184,422.0000000000,396.0000000000,455.0000000000,202.0000000000,29.0000000000,0.0000000000
1717675128184,418.0000000000,391.0000000000,452.0000000000,199.0000000000,28.0000000000,0.0000000000
1717675128184,414.0000000000,390.0000000000,546.0000000000,199.0000000000,28.0000000000,0.0000000000
1717675128185,411.0000000000,423.0000000000,538.0000000000,198.0000000000,28.0000000000,0.0000000000
1717675128185,408.0000000000,419.0000000000,534.0000000000,196.0000000000,28.0000000000,0.0000000000
1717675128185,403.0000000000,415.0000000000,529.0000000000,195.0000000000,28.0000000000,0.0000000000
1717675128185,400.0000000000,413.0000000000,524.0000000000,195.0000000000,28.0000000000,0.0000000000
1717675128186,398.0000000000,409.0000000000,519.0000000000,193.0000000000,27.0000000000,0.0000000000
1717675128186,393.0000000000,406.0000000000,515.0000000000,192.0000000000,28.0000000000,0.0000000000
1717675128186,391.0000000000,478.0000000000,611.0000000000,192.0000000000,27.0000000000,0.0000000000
1717675128187,387.0000000000,472.0000000000,606.0000000000,190.0000000000,27.0000000000,0.0000000000
1717675128187,385.0000000000,467.0000000000,599.0000000000,189.0000000000,27.0000000000,0.0000000000
1717675128187,382.0000000000,463.0000000000,594.0000000000,188.0000000000,26.0000000000,0.0000000000
1717675128187,379.0000000000,460.0000000000,588.0000000000,187.0000000000,26.0000000000,0.0000000000
1717675128188,376.0000000000,455.0000000000,582.0000000000,186.0000000000,26.0000000000,0.0000000000
1717675128188,373.0000000000,451.0000000000,575.0000000000,184.0000000000,26.0000000000,0.0000000000
1717675128188,370.0000000000,448.0000000000,572.0000000000,184.0000000000,25.0000000000,0.0000000000
1717675128189,368.0000000000,444.0000000000,567.0000000000,182.0000000000,25.0000000000,0.0000000000
1717675128209,365.0000000000,441.0000000000,561.0000000000,182.0000000000,25.0000000000,0.0000000000
1717675128210,362.0000000000,438.0000000000,556.0000000000,180.0000000000,25.0000000000,0.0000000000
1717675128210,359.0000000000,433.0000000000,551.0000000000,179.0000000000,24.0000000000,0.0000000000
1717675128210,357.0000000000,430.0000000000,547.0000000000,178.0000000000,25.0000000000,0.0000000000
1717675128210,354.0000000000,428.0000000000,541.0000000000,177.0000000000,24.0000000000,0.0000000000
1717675128210,352.0000000000,423.0000000000,536.0000000000,190.0000000000,24.0000000000,0.0000000000
1717675128211,350.0000000000,419.0000000000,532.0000000000,189.0000000000,24.0000000000,0.0000000000
1717675128211,347.0000000000,416.0000000000,527.0000000000,187.0000000000,24.0000000000,0.0000000000
1717675128211,344.0000000000,414.0000000000,523.0000000000,186.0000000000,24.0000000000,0.0000000000
1717675128211,342.0000000000,411.0000000000,519.0000000000,184.0000000000,24.0000000000,0.0000000000
1717675128211,339.0000000000,408.0000000000,515.0000000000,184.0000000000,24.0000000000,0.0000000000
1717675128229,337.0000000000,404.0000000000,511.0000000000,182.0000000000,24.0000000000,0.0000000000
1717675128230,335.0000000000,401.0000000000,507.0000000000,181.0000000000,24.0000000000,0.0000000000
1717675128230,332.0000000000,399.0000000000,502.0000000000,179.0000000000,24.0000000000,0.0000000000
1717675128230,330.0000000000,396.0000000000,497.0000000000,179.0000000000,24.0000000000,0.0000000000
1717675128230,327.0000000000,391.0000000000,495.0000000000,177.0000000000,24.0000000000,0.0000000000
1717675128230,326.0000000000,390.0000000000,491.0000000000,176.0000000000,23.0000000000,0.0000000000
1717675128230,323.0000000000,387.0000000000,486.0000000000,176.0000000000,23.0000000000,0.0000000000
1717675128230,321.0000000000,384.0000000000,483.0000000000,174.0000000000,23.0000000000,0.0000000000
1717675128231,319.0000000000,382.0000000000,480.0000000000,174.0000000000,23.0000000000,0.0000000000
1717675128231,317.0000000000,379.0000000000,476.0000000000,172.0000000000,22.0000000000,0.0000000000
1717675128231,315.0000000000,376.0000000000,472.0000000000,171.0000000000,22.0000000000,0.0000000000
1717675128249,312.0000000000,374.0000000000,468.0000000000,171.0000000000,22.0000000000,0.0000000000
1717675128250,312.0000000000,371.0000000000,465.0000000000,169.0000000000,22.0000000000,0.0000000000
1717675128250,308.0000000000,368.0000000000,462.0000000000,167.0000000000,22.0000000000,0.0000000000
1717675128250,307.0000000000,366.0000000000,458.0000000000,167.0000000000,22.0000000000,0.0000000000
1717675128251,431.0000000000,364.0000000000,455.0000000000,167.0000000000,22.0000000000,0.0000000000
1717675128251,615.0000000000,360.0000000000,451.0000000000,166.0000000000,21.0000000000,0.0000000000
1717675128251,604.0000000000,358.0000000000,448.0000000000,164.0000000000,21.0000000000,0.0000000000
1717675128251,598.0000000000,355.0000000000,444.0000000000,163.0000000000,20.0000000000,0.0000000000
1717675128251,591.0000000000,353.0000000000,441.0000000000,163.0000000000,20.0000000000,0.0000000000
1717675128252,584.0000000000,351.0000000000,439.0000000000,161.0000000000,20.0000000000,0.0000000000
1717675128252,579.0000000000,348.0000000000,435.0000000000,160.0000000000,20.0000000000,0.0000000000
1717675128269,574.0000000000,347.0000000000,432.0000000000,159.0000000000,20.0000000000,0.0000000000
1717675128271,568.0000000000,383.0000000000,428.0000000000,159.0000000000,19.0000000000,0.0000000000
1717675128271,562.0000000000,379.0000000000,426.0000000000,158.0000000000,19.0000000000,0.0000000000
1717675128271,558.0000000000,376.0000000000,423.0000000000,157.0000000000,20.0000000000,0.0000000000
1717675128271,553.0000000000,374.0000000000,502.0000000000,156.0000000000,20.0000000000,0.0000000000
1717675128271,547.0000000000,371.0000000000,499.0000000000,156.0000000000,20.0000000000,0.0000000000
1717675128272,542.0000000000,429.0000000000,496.0000000000,155.0000000000,20.0000000000,0.0000000000
1717675128272,537.0000000000,423.0000000000,491.0000000000,153.0000000000,20.0000000000,0.0000000000
1717675128272,532.0000000000,419.0000000000,487.0000000000,152.0000000000,19.0000000000,0.0000000000
1717675128272,527.0000000000,416.0000000000,481.0000000000,152.0000000000,19.0000000000,0.0000000000
1717675128272,523.0000000000,413.0000000000,478.0000000000,151.0000000000,19.0000000000,0.0000000000
1717675128290,518.0000000000,409.0000000000,475.0000000000,150.0000000000,37.0000000000,0.0000000000
1717675128291,514.0000000000,406.0000000000,470.0000000000,149.0000000000,39.0000000000,0.0000000000
1717675128291,510.0000000000,403.0000000000,466.0000000000,148.0000000000,39.0000000000,0.0000000000
1717675128291,504.0000000000,399.0000000000,463.0000000000,147.0000000000,38.0000000000,0.0000000000
1717675128292,500.0000000000,396.0000000000,460.0000000000,185.0000000000,38.0000000000,0.0000000000
1717675128292,496.0000000000,393.0000000000,455.0000000000,196.0000000000,38.0000000000,0.0000000000
1717675128292,492.0000000000,391.0000000000,451.0000000000,195.0000000000,38.0000000000,0.0000000000
1717675128292,487.0000000000,387.0000000000,448.0000000000,193.0000000000,37.0000000000,0.0000000000
1717675128292,483.0000000000,384.0000000000,444.0000000000,192.0000000000,36.0000000000,0.0000000000
1717675128292,480.0000000000,382.0000000000,441.0000000000,191.0000000000,36.0000000000,0.0000000000
1717675128293,476.0000000000,380.0000000000,438.0000000000,234.0000000000,36.0000000000,0.0000000000
1717675128309,472.0000000000,376.0000000000,434.0000000000,231.0000000000,36.0000000000,0.0000000000
1717675128310,468.0000000000,374.0000000000,432.0000000000,228.0000000000,36.0000000000,0.0000000000
1717675128311,464.0000000000,371.0000000000,428.0000000000,227.0000000000,35.0000000000,0.0000000000
1717675128311,461.0000000000,368.0000000000,423.0000000000,225.0000000000,35.0000000000,0.0000000000
1717675128311,457.0000000000,365.0000000000,421.0000000000,224.0000000000,35.0000000000,0.0000000000
1717675128311,454.0000000000,363.0000000000,419.0000000000,231.0000000000,35.0000000000,0.0000000000
1717675128311,450.0000000000,359.0000000000,415.0000000000,230.0000000000,35.0000000000,0.0000000000
1717675128312,447.0000000000,358.0000000000,412.0000000000,228.0000000000,35.0000000000,0.0000000000
1717675128312,443.0000000000,355.0000000000,409.0000000000,227.0000000000,34.0000000000,0.0000000000
1717675128312,440.0000000000,353.0000000000,408.0000000000,225.0000000000,34.0000000000,0.0000000000
1717675128312,436.0000000000,350.0000000000,403.0000000000,223.0000000000,34.0000000000,0.0000000000
1717675128328,433.0000000000,348.0000000000,504.0000000000,222.0000000000,33.0000000000,0.0000000000
1717675128329,430.0000000000,345.0000000000,508.0000000000,220.0000000000,33.0000000000,0.0000000000
1717675128329,427.0000000000,472.0000000000,504.0000000000,219.0000000000,33.0000000000,0.0000000000
1717675128329,423.0000000000,466.0000000000,521.0000000000,217.0000000000,33.0000000000,0.0000000000
1717675128329,420.0000000000,461.0000000000,515.0000000000,216.0000000000,33.0000000000,0.0000000000
1717675128330,417.0000000000,457.0000000000,511.0000000000,215.0000000000,31.0000000000,0.0000000000
1717675128330,414.0000000000,454.0000000000,506.0000000000,214.0000000000,32.0000000000,0.0000000000
1717675128330,411.0000000000,449.0000000000,503.0000000000,211.0000000000,31.0000000000,0.0000000000
1717675128330,408.0000000000,445.0000000000,497.0000000000,210.0000000000,31.0000000000,0.0000000000
1717675128346,406.0000000000,442.0000000000,493.0000000000,209.0000000000,31.0000000000,0.0000000000
1717675128347,402.0000000000,439.0000000000,488.0000000000,207.0000000000,31.0000000000,0.0000000000
1717675128347,399.0000000000,435.0000000000,486.0000000000,206.0000000000,58.0000000000,0.0000000000
1717675128347,396.0000000000,432.0000000000,481.0000000000,204.0000000000,60.0000000000,0.0000000000
1717675128347,393.0000000000,428.0000000000,477.0000000000,204.0000000000,59.0000000000,0.0000000000
1717675128347,391.0000000000,425.0000000000,473.0000000000,203.0000000000,58.0000000000,0.0000000000
1717675128347,419.0000000000,422.0000000000,529.0000000000,201.0000000000,58.0000000000,0.0000000000
1717675128348,415.0000000000,472.0000000000,550.0000000000,199.0000000000,57.0000000000,0.0000000000
1717675128348,411.0000000000,467.0000000000,543.0000000000,199.0000000000,57.0000000000,0.0000000000
1717675128348,408.0000000000,463.0000000000,539.0000000000,197.0000000000,56.0000000000,0.0000000000
1717675128362,403.0000000000,459.0000000000,535.0000000000,196.0000000000,56.0000000000,0.0000000000
1717675128362,400.0000000000,455.0000000000,530.0000000000,195.0000000000,56.0000000000,0.0000000000
1717675128362,397.0000000000,451.0000000000,525.0000000000,193.0000000000,56.0000000000,0.0000000000
1717675128363,394.0000000000,448.0000000000,519.0000000000,192.0000000000,55.0000000000,0.0000000000
1717675128363,391.0000000000,444.0000000000,516.0000000000,191.0000000000,56.0000000000,0.0000000000
1717675128363,387.0000000000,440.0000000000,512.0000000000,190.0000000000,55.0000000000,0.0000000000
1717675128363,385.0000000000,436.0000000000,507.0000000000,189.0000000000,54.0000000000,0.0000000000
1717675128382,382.0000000000,432.0000000000,503.0000000000,188.0000000000,54.0000000000,0.0000000000
1717675128383,380.0000000000,428.0000000000,499.0000000000,187.0000000000,53.0000000000,0.0000000000
1717675128384,376.0000000000,425.0000000000,495.0000000000,185.0000000000,53.0000000000,0.0000000000
1717675128384,375.0000000000,423.0000000000,490.0000000000,184.0000000000,53.0000000000,0.0000000000
1717675128384,371.0000000000,419.0000000000,486.0000000000,184.0000000000,52.0000000000,0.0000000000
1717675128385,369.0000000000,415.0000000000,483.0000000000,182.0000000000,52.0000000000,0.0000000000
1717675128385,367.0000000000,412.0000000000,479.0000000000,180.0000000000,51.0000000000,0.0000000000
