timestamp,Channel 1,Channel 2,Channel 3,Channel 4,Channel 5,Channel 6
1717675136890,15.0000000000,0.0000000000,0.0000000000,75.0000000000,83.0000000000,2.0000000000
1717675136892,16.0000000000,0.0000000000,1.0000000000,75.0000000000,83.0000000000,2.0000000000
1717675136892,16.0000000000,0.0000000000,0.0000000000,75.0000000000,83.0000000000,2.0000000000
1717675136895,16.0000000000,0.0000000000,0.0000000000,73.0000000000,82.0000000000,2.0000000000
1717675136895,15.0000000000,0.0000000000,0.0000000000,73.0000000000,82.0000000000,1.0000000000
1717675136896,15.0000000000,0.0000000000,0.0000000000,73.0000000000,81.0000000000,1.0000000000
1717675136897,16.0000000000,0.0000000000,0.0000000000,72.0000000000,81.0000000000,2.0000000000
1717675136897,15.0000000000,0.0000000000,0.0000000000,73.0000000000,81.0000000000,1.0000000000
1717675136898,15.0000000000,0.0000000000,0.0000000000,71.0000000000,79.0000000000,1.0000000000
1717675136898,15.0000000000,0.0000000000,0.0000000000,71.0000000000,80.0000000000,2.0000000000
1717675136899,15.0000000000,0.0000000000,0.0000000000,71.0000000000,80.0000000000,2.0000000000
1717675136899,15.0000000000,0.0000000000,0.0000000000,71.0000000000,79.0000000000,2.0000000000
1717675136900,15.0000000000,0.0000000000,0.0000000000,71.0000000000,79.0000000000,2.0000000000
1717675136900,15.0000000000,0.0000000000,0.0000000000,71.0000000000,79.0000000000,2.0000000000
1717675136901,15.0000000000,0.0000000000,0.0000000000,71.0000000000,78.0000000000,1.0000000000
1717675136902,15.0000000000,0.0000000000,0.0000000000,70.0000000000,78.0000000000,1.0000000000
1717675136902,15.0000000000,0.0000000000,0.0000000000,70.0000000000,78.0000000000,1.0000000000
1717675136902,15.0000000000,0.0000000000,0.0000000000,69.0000000000,78.0000000000,1.0000000000
1717675136903,15.0000000000,0.0000000000,0.0000000000,69.0000000000,77.0000000000,1.0000000000
1717675136903,15.0000000000,0.0000000000,0.0000000000,69.0000000000,76.0000000000,1.0000000000
1717675136904,15.0000000000,0.0000000000,0.0000000000,67.0000000000,76.0000000000,1.0000000000
1717675136904,15.0000000000,0.0000000000,0.0000000000,67.0000000000,76.0000000000,2.0000000000
1717675136904,15.0000000000,0.0000000000,0.0000000000,68.0000000000,76.0000000000,1.0000000000
1717675136905,15.0000000000,0.0000000000,0.0000000000,67.0000000000,76.0000000000,1.0000000000
1717675136905,15.0000000000,0.0000000000,0.0000000000,67.0000000000,76.0000000000,1.0000000000
1717675136906,15.0000000000,0.0000000000,0.0000000000,67.0000000000,75.0000000000,1.0000000000
1717675136906,15.0000000000,0.0000000000,0.0000000000,67.0000000000,75.0000000000,1.0000000000
1717675136938,15.0000000000,0.0000000000,0.0000000000,65.0000000000,74.0000000000,1.0000000000
1717675136940,15.0000000000,0.0000000000,0.0000000000,65.0000000000,73.0000000000,1.0000000000
1717675136940,15.0000000000,0.0000000000,0.0000000000,65.0000000000,73.0000000000,1.0000000000
1717675136941,15.0000000000,0.0000000000,0.0000000000,65.0000000000,73.0000000000,1.0000000000
1717675136941,15.0000000000,0.0000000000,0.0000000000,65.0000000000,73.0000000000,1.0000000000
1717675136941,15.0000000000,0.0000000000,0.0000000000,64.0000000000,73.0000000000,1.0000000000
1717675136941,15.0000000000,0.0000000000,0.0000000000,63.0000000000,71.0000000000,1.0000000000
1717675136942,15.0000000000,0.0000000000,0.0000000000,63.0000000000,71.0000000000,1.0000000000
1717675136942,15.0000000000,0.0000000000,0.0000000000,63.0000000000,71.0000000000,1.0000000000
1717675136942,15.0000000000,0.0000000000,0.0000000000,63.0000000000,71.0000000000,1.0000000000
1717675136942,15.0000000000,0.0000000000,0.0000000000,63.0000000000,71.0000000000,1.0000000000
1717675136943,15.0000000000,0.0000000000,0.0000000000,63.0000000000,71.0000000000,1.0000000000
1717675136943,15.0000000000,0.0000000000,0.0000000000,62.0000000000,71.0000000000,1.0000000000
1717675136943,15.0000000000,0.0000000000,1.0000000000,62.0000000000,71.0000000000,1.0000000000
1717675136943,14.0000000000,0.0000000000,0.0000000000,62.0000000000,70.0000000000,1.0000000000
1717675136944,15.0000000000,0.0000000000,0.0000000000,62.0000000000,70.0000000000,1.0000000000
1717675136944,14.0000000000,0.0000000000,0.0000000000,102.0000000000,70.0000000000,1.0000000000
1717675136944,14.0000000000,0.0000000000,0.0000000000,102.0000000000,69.0000000000,1.0000000000
1717675136945,15.0000000000,0.0000000000,0.0000000000,100.0000000000,69.0000000000,1.0000000000
1717675136945,15.0000000000,0.0000000000,0.0000000000,99.0000000000,68.0000000000,1.0000000000
1717675136945,15.0000000000,0.0000000000,0.0000000000,99.0000000000,68.0000000000,1.0000000000
1717675136945,15.0000000000,0.0000000000,0.0000000000,99.0000000000,67.0000000000,1.0000000000
1717675136945,14.0000000000,0.0000000000,0.0000000000,99.0000000000,67.0000000000,1.0000000000
1717675136945,14.0000000000,0.0000000000,0.0000000000,98.0000000000,67.0000000000,1.0000000000
1717675136945,14.0000000000,0.0000000000,0.0000000000,97.0000000000,67.0000000000,1.0000000000
1717675136946,14.0000000000,0.0000000000,0.0000000000,97.0000000000,67.0000000000,1.0000000000
1717675136946,14.0000000000,0.0000000000,0.0000000000,96.0000000000,67.0000000000,1.0000000000
1717675136946,14.0000000000,0.0000000000,0.0000000000,96.0000000000,66.0000000000,1.0000000000
1717675136946,14.0000000000,0.0000000000,0.0000000000,95.0000000000,66.0000000000,1.0000000000
1717675136946,14.0000000000,0.0000000000,0.0000000000,95.0000000000,65.0000000000,1.0000000000
1717675136962,14.0000000000,0.0000000000,0.0000000000,94.0000000000,66.0000000000,1.0000000000
1717675136963,14.0000000000,0.0000000000,0.0000000000,94.0000000000,65.0000000000,1.0000000000
1717675136963,14.0000000000,0.0000000000,0.0000000000,94.0000000000,65.0000000000,1.0000000000
1717675136963,15.0000000000,0.0000000000,0.0000000000,93.0000000000,65.0000000000,1.0000000000
1717675136964,15.0000000000,0.0000000000,0.0000000000,92.0000000000,64.0000000000,1.0000000000
1717675136964,15.0000000000,0.0000000000,0.0000000000,92.0000000000,63.0000000000,1.0000000000
1717675136964,15.0000000000,0.0000000000,0.0000000000,92.0000000000,63.0000000000,1.0000000000
1717675136964,15.0000000000,0.0000000000,0.0000000000,91.0000000000,63.0000000000,1.0000000000
1717675136965,15.0000000000,0.0000000000,0.0000000000,91.0000000000,63.0000000000,0.0000000000
1717675136965,15.0000000000,0.0000000000,0.0000000000,91.0000000000,63.0000000000,1.0000000000
1717675136965,15.0000000000,0.0000000000,0.0000000000,89.0000000000,63.0000000000,1.0000000000
1717675136965,15.0000000000,0.0000000000,0.0000000000,89.0000000000,63.0000000000,1.0000000000
1717675136985,14.0000000000,0.0000000000,0.0000000000,89.0000000000,63.0000000000,0.0000000000
1717675136986,15.0000000000,0.0000000000,0.0000000000,88.0000000000,62.0000000000,0.0000000000
1717675136986,14.0000000000,0.0000000000,0.0000000000,88.0000000000,62.0000000000,1.0000000000
1717675136986,14.0000000000,0.0000000000,0.0000000000,88.0000000000,62.0000000000,1.0000000000
1717675136986,14.0000000000,0.0000000000,0.0000000000,88.0000000000,62.0000000000,1.0000000000
1717675136987,14.0000000000,0.0000000000,0.0000000000,87.0000000000,61.0000000000,1.0000000000
1717675136987,15.0000000000,0.0000000000,0.0000000000,87.0000000000,61.0000000000,0.0000000000
1717675136987,15.0000000000,0.0000000000,0.0000000000,87.0000000000,61.0000000000,1.0000000000
1717675136987,14.0000000000,0.0000000000,0.0000000000,86.0000000000,60.0000000000,1.0000000000
1717675136987,14.0000000000,0.0000000000,0.0000000000,85.0000000000,60.0000000000,1.0000000000
1717675136987,14.0000000000,0.0000000000,0.0000000000,86.0000000000,60.0000000000,0.0000000000
1717675136987,14.0000000000,0.0000000000,0.0000000000,84.0000000000,60.0000000000,0.0000000000
1717675136988,14.0000000000,0.0000000000,1.0000000000,84.0000000000,60.0000000000,1.0000000000
1717675136988,14.0000000000,0.0000000000,7.0000000000,84.0000000000,59.0000000000,0.0000000000
1717675136988,14.0000000000,0.0000000000,7.0000000000,83.0000000000,59.0000000000,1.0000000000
1717675136988,14.0000000000,0.0000000000,7.0000000000,83.0000000000,59.0000000000,1.0000000000
1717675136988,14.0000000000,0.0000000000,7.0000000000,83.0000000000,59.0000000000,1.0000000000
1717675136988,13.0000000000,0.0000000000,7.0000000000,83.0000000000,58.0000000000,1.0000000000
1717675137002,14.0000000000,0.0000000000,7.0000000000,82.0000000000,58.0000000000,0.0000000000
1717675137004,14.0000000000,0.0000000000,7.0000000000,81.0000000000,57.0000000000,0.0000000000
1717675137004,14.0000000000,0.0000000000,7.0000000000,81.0000000000,57.0000000000,1.0000000000
1717675137004,14.0000000000,0.0000000000,7.0000000000,81.0000000000,57.0000000000,0.0000000000
1717675137005,14.0000000000,0.0000000000,7.0000000000,80.0000000000,57.0000000000,1.0000000000
1717675137005,14.0000000000,0.0000000000,7.0000000000,80.0000000000,57.0000000000,0.0000000000
1717675137005,14.0000000000,0.0000000000,7.0000000000,79.0000000000,56.0000000000,1.0000000000
1717675137005,14.0000000000,0.0000000000,7.0000000000,79.0000000000,56.0000000000,1.0000000000
1717675137006,13.0000000000,0.0000000000,7.0000000000,79.0000000000,56.0000000000,1.0000000000
1717675137006,14.0000000000,0.0000000000,7.0000000000,79.0000000000,56.0000000000,0.0000000000
1717675137006,13.0000000000,0.0000000000,7.0000000000,78.0000000000,56.0000000000,0.0000000000
1717675137007,14.0000000000,0.0000000000,7.0000000000,78.0000000000,55.0000000000,1.0000000000
1717675137007,14.0000000000,0.0000000000,7.0000000000,78.0000000000,55.0000000000,0.0000000000
1717675137007,13.0000000000,0.0000000000,7.0000000000,77.0000000000,55.0000000000,1.0000000000
1717675137007,13.0000000000,0.0000000000,7.0000000000,77.0000000000,55.0000000000,1.0000000000
1717675137029,13.0000000000,0.0000000000,7.0000000000,77.0000000000,55.0000000000,0.0000000000
1717675137030,13.0000000000,0.0000000000,7.0000000000,76.0000000000,54.0000000000,0.0000000000
1717675137030,14.0000000000,0.0000000000,7.0000000000,76.0000000000,54.0000000000,0.0000000000
1717675137030,14.0000000000,0.0000000000,7.0000000000,75.0000000000,54.0000000000,1.0000000000
1717675137031,14.0000000000,0.0000000000,6.0000000000,108.0000000000,54.0000000000,0.0000000000
1717675137031,14.0000000000,0.0000000000,7.0000000000,108.0000000000,54.0000000000,0.0000000000
1717675137031,14.0000000000,0.0000000000,7.0000000000,107.0000000000,53.0000000000,0.0000000000
1717675137031,14.0000000000,0.0000000000,6.0000000000,105.0000000000,52.0000000000,0.0000000000
1717675137031,14.0000000000,0.0000000000,7.0000000000,105.0000000000,52.0000000000,0.0000000000
1717675137031,13.0000000000,0.0000000000,7.0000000000,103.0000000000,52.0000000000,0.0000000000
1717675137032,14.0000000000,0.0000000000,6.0000000000,103.0000000000,52.0000000000,0.0000000000
1717675137032,14.0000000000,0.0000000000,7.0000000000,103.0000000000,52.0000000000,0.0000000000
1717675137032,14.0000000000,0.0000000000,6.0000000000,103.0000000000,52.0000000000,1.0000000000
1717675137032,13.0000000000,0.0000000000,6.0000000000,102.0000000000,51.0000000000,0.0000000000
1717675137032,13.0000000000,0.0000000000,6.0000000000,102.0000000000,51.0000000000,0.0000000000
1717675137032,13.0000000000,0.0000000000,6.0000000000,100.0000000000,51.0000000000,0.0000000000
1717675137032,14.0000000000,0.0000000000,28.0000000000,100.0000000000,51.0000000000,0.0000000000
1717675137046,13.0000000000,0.0000000000,28.0000000000,118.0000000000,51.0000000000,0.0000000000
1717675137047,13.0000000000,0.0000000000,28.0000000000,123.0000000000,51.0000000000,0.0000000000
1717675137047,13.0000000000,0.0000000000,86.0000000000,122.0000000000,50.0000000000,0.0000000000
1717675137047,13.0000000000,0.0000000000,84.0000000000,121.0000000000,50.0000000000,0.0000000000
1717675137047,13.0000000000,0.0000000000,83.0000000000,120.0000000000,49.0000000000,0.0000000000
1717675137047,13.0000000000,0.0000000000,83.0000000000,120.0000000000,49.0000000000,0.0000000000
1717675137047,13.0000000000,0.0000000000,82.0000000000,120.0000000000,49.0000000000,0.0000000000
1717675137047,12.0000000000,0.0000000000,82.0000000000,118.0000000000,49.0000000000,0.0000000000
1717675137048,12.0000000000,0.0000000000,81.0000000000,118.0000000000,48.0000000000,0.0000000000
1717675137048,13.0000000000,0.0000000000,81.0000000000,117.0000000000,48.0000000000,0.0000000000
1717675137048,12.0000000000,0.0000000000,81.0000000000,116.0000000000,48.0000000000,0.0000000000
1717675137067,12.0000000000,0.0000000000,80.0000000000,115.0000000000,48.0000000000,0.0000000000
1717675137067,12.0000000000,0.0000000000,79.0000000000,115.0000000000,48.0000000000,0.0000000000
1717675137067,12.0000000000,0.0000000000,79.0000000000,114.0000000000,48.0000000000,0.0000000000
1717675137068,12.0000000000,0.0000000000,79.0000000000,113.0000000000,47.0000000000,0.0000000000
1717675137068,13.0000000000,0.0000000000,79.0000000000,113.0000000000,48.0000000000,0.0000000000
1717675137068,12.0000000000,0.0000000000,79.0000000000,112.0000000000,47.0000000000,0.0000000000
1717675137068,12.0000000000,0.0000000000,79.0000000000,112.0000000000,47.0000000000,0.0000000000
1717675137068,12.0000000000,2.0000000000,79.0000000000,111.0000000000,47.0000000000,0.0000000000
1717675137068,12.0000000000,3.0000000000,79.0000000000,111.0000000000,47.0000000000,0.0000000000
1717675137068,12.0000000000,3.0000000000,78.0000000000,110.0000000000,46.0000000000,0.0000000000
1717675137069,12.0000000000,2.0000000000,155.0000000000,110.0000000000,46.0000000000,0.0000000000
1717675137069,12.0000000000,2.0000000000,156.0000000000,108.0000000000,46.0000000000,0.0000000000
1717675137069,12.0000000000,3.0000000000,156.0000000000,108.0000000000,46.0000000000,0.0000000000
1717675137087,12.0000000000,3.0000000000,153.0000000000,108.0000000000,45.0000000000,0.0000000000
1717675137088,13.0000000000,3.0000000000,153.0000000000,107.0000000000,45.0000000000,0.0000000000
1717675137088,12.0000000000,2.0000000000,152.0000000000,107.0000000000,45.0000000000,0.0000000000
1717675137089,13.0000000000,2.0000000000,152.0000000000,105.0000000000,44.0000000000,0.0000000000
1717675137089,13.0000000000,2.0000000000,150.0000000000,105.0000000000,44.0000000000,0.0000000000
1717675137089,12.0000000000,2.0000000000,149.0000000000,104.0000000000,44.0000000000,0.0000000000
1717675137089,12.0000000000,2.0000000000,148.0000000000,103.0000000000,44.0000000000,0.0000000000
1717675137089,12.0000000000,7.0000000000,149.0000000000,103.0000000000,44.0000000000,0.0000000000
1717675137089,13.0000000000,7.0000000000,216.0000000000,103.0000000000,44.0000000000,0.0000000000
1717675137089,12.0000000000,7.0000000000,214.0000000000,103.0000000000,44.0000000000,0.0000000000
1717675137090,12.0000000000,7.0000000000,212.0000000000,113.0000000000,43.0000000000,0.0000000000
1717675137090,12.0000000000,7.0000000000,211.0000000000,113.0000000000,43.0000000000,0.0000000000
1717675137090,20.0000000000,7.0000000000,209.0000000000,112.0000000000,43.0000000000,0.0000000000
1717675137118,55.0000000000,69.0000000000,208.0000000000,112.0000000000,43.0000000000,0.0000000000
1717675137119,56.0000000000,91.0000000000,207.0000000000,111.0000000000,42.0000000000,0.0000000000
1717675137119,56.0000000000,89.0000000000,206.0000000000,111.0000000000,42.0000000000,0.0000000000
1717675137119,56.0000000000,89.0000000000,236.0000000000,110.0000000000,41.0000000000,0.0000000000
1717675137119,55.0000000000,88.0000000000,233.0000000000,109.0000000000,41.0000000000,0.0000000000
1717675137119,55.0000000000,88.0000000000,299.0000000000,108.0000000000,41.0000000000,0.0000000000
1717675137119,55.0000000000,88.0000000000,294.0000000000,108.0000000000,41.0000000000,0.0000000000
1717675137119,54.0000000000,87.0000000000,291.0000000000,107.0000000000,41.0000000000,0.0000000000
1717675137119,54.0000000000,86.0000000000,289.0000000000,106.0000000000,40.0000000000,0.0000000000
1717675137120,54.0000000000,86.0000000000,287.0000000000,105.0000000000,39.0000000000,0.0000000000
1717675137120,54.0000000000,85.0000000000,286.0000000000,105.0000000000,39.0000000000,0.0000000000
1717675137120,107.0000000000,84.0000000000,284.0000000000,103.0000000000,39.0000000000,0.0000000000
1717675137120,130.0000000000,83.0000000000,281.0000000000,103.0000000000,39.0000000000,0.0000000000
1717675137120,128.0000000000,83.0000000000,280.0000000000,103.0000000000,39.0000000000,0.0000000000
1717675137120,127.0000000000,83.0000000000,278.0000000000,103.0000000000,39.0000000000,0.0000000000
1717675137120,126.0000000000,82.0000000000,275.0000000000,102.0000000000,39.0000000000,0.0000000000
1717675137121,126.0000000000,81.0000000000,274.0000000000,109.0000000000,39.0000000000,0.0000000000
1717675137134,124.0000000000,82.0000000000,272.0000000000,108.0000000000,39.0000000000,0.0000000000
1717675137135,124.0000000000,81.0000000000,271.0000000000,107.0000000000,39.0000000000,0.0000000000
1717675137135,123.0000000000,81.0000000000,269.0000000000,107.0000000000,39.0000000000,0.0000000000
1717675137135,206.0000000000,80.0000000000,267.0000000000,105.0000000000,38.0000000000,0.0000000000
1717675137135,263.0000000000,79.0000000000,265.0000000000,105.0000000000,38.0000000000,0.0000000000
1717675137135,262.0000000000,79.0000000000,263.0000000000,172.0000000000,38.0000000000,0.0000000000
1717675137136,267.0000000000,79.0000000000,262.0000000000,169.0000000000,38.0000000000,0.0000000000
1717675137136,271.0000000000,78.0000000000,261.0000000000,167.0000000000,38.0000000000,0.0000000000
1717675137136,268.0000000000,78.0000000000,259.0000000000,167.0000000000,38.0000000000,0.0000000000
1717675137150,267.0000000000,78.0000000000,257.0000000000,166.0000000000,36.0000000000,0.0000000000
1717675137150,263.0000000000,77.0000000000,255.0000000000,164.0000000000,36.0000000000,0.0000000000
1717675137151,263.0000000000,76.0000000000,254.0000000000,164.0000000000,36.0000000000,0.0000000000
1717675137151,260.0000000000,76.0000000000,253.0000000000,163.0000000000,36.0000000000,0.0000000000
1717675137151,259.0000000000,75.0000000000,297.0000000000,162.0000000000,36.0000000000,0.0000000000
1717675137151,255.0000000000,76.0000000000,307.0000000000,159.0000000000,36.0000000000,0.0000000000
1717675137151,255.0000000000,75.0000000000,304.0000000000,159.0000000000,35.0000000000,0.0000000000
1717675137151,253.0000000000,74.0000000000,302.0000000000,159.0000000000,35.0000000000,0.0000000000
1717675137151,252.0000000000,73.0000000000,300.0000000000,157.0000000000,35.0000000000,0.0000000000
1717675137166,250.0000000000,73.0000000000,297.0000000000,156.0000000000,35.0000000000,0.0000000000
1717675137167,248.0000000000,73.0000000000,295.0000000000,155.0000000000,35.0000000000,0.0000000000
1717675137167,247.0000000000,71.0000000000,294.0000000000,155.0000000000,35.0000000000,0.0000000000
1717675137167,245.0000000000,71.0000000000,292.0000000000,153.0000000000,35.0000000000,0.0000000000
1717675137167,243.0000000000,80.0000000000,290.0000000000,152.0000000000,35.0000000000,0.0000000000
1717675137167,242.0000000000,79.0000000000,287.0000000000,152.0000000000,35.0000000000,0.0000000000
1717675137167,240.0000000000,79.0000000000,287.0000000000,151.0000000000,34.0000000000,0.0000000000
1717675137167,239.0000000000,79.0000000000,284.0000000000,150.0000000000,34.0000000000,0.0000000000
1717675137167,238.0000000000,78.0000000000,283.0000000000,149.0000000000,34.0000000000,0.0000000000
1717675137183,236.0000000000,78.0000000000,281.0000000000,147.0000000000,34.0000000000,0.0000000000
1717675137183,237.0000000000,97.0000000000,280.0000000000,147.0000000000,33.0000000000,0.0000000000
1717675137184,240.0000000000,131.0000000000,278.0000000000,146.0000000000,33.0000000000,0.0000000000
1717675137184,238.0000000000,132.0000000000,275.0000000000,145.0000000000,33.0000000000,0.0000000000
1717675137184,236.0000000000,131.0000000000,273.0000000000,143.0000000000,33.0000000000,0.0000000000
1717675137184,235.0000000000,129.0000000000,271.0000000000,143.0000000000,39.0000000000,0.0000000000
1717675137184,232.0000000000,128.0000000000,270.0000000000,143.0000000000,42.0000000000,0.0000000000
1717675137184,231.0000000000,127.0000000000,268.0000000000,142.0000000000,41.0000000000,0.0000000000
1717675137184,230.0000000000,127.0000000000,267.0000000000,140.0000000000,41.0000000000,0.0000000000
1717675137205,228.0000000000,126.0000000000,264.0000000000,140.0000000000,41.0000000000,0.0000000000
1717675137207,227.0000000000,125.0000000000,263.0000000000,139.0000000000,39.0000000000,0.0000000000
1717675137207,225.0000000000,131.0000000000,262.0000000000,139.0000000000,40.0000000000,0.0000000000
1717675137207,224.0000000000,231.0000000000,259.0000000000,137.0000000000,39.0000000000,0.0000000000
1717675137207,223.0000000000,228.0000000000,258.0000000000,135.0000000000,39.0000000000,0.0000000000
1717675137208,221.0000000000,225.0000000000,257.0000000000,135.0000000000,39.0000000000,0.0000000000
1717675137208,220.0000000000,224.0000000000,255.0000000000,135.0000000000,39.0000000000,0.0000000000
1717675137208,219.0000000000,222.0000000000,254.0000000000,134.0000000000,39.0000000000,0.0000000000
1717675137208,217.0000000000,221.0000000000,252.0000000000,133.0000000000,39.0000000000,0.0000000000
1717675137208,216.0000000000,219.0000000000,250.0000000000,132.0000000000,39.0000000000,0.0000000000
1717675137209,215.0000000000,217.0000000000,249.0000000000,131.0000000000,38.0000000000,0.0000000000
1717675137209,212.0000000000,216.0000000000,248.0000000000,131.0000000000,38.0000000000,0.0000000000
1717675137210,211.0000000000,215.0000000000,251.0000000000,130.0000000000,38.0000000000,0.0000000000
1717675137225,209.0000000000,212.0000000000,248.0000000000,129.0000000000,38.0000000000,0.0000000000
1717675137227,209.0000000000,211.0000000000,248.0000000000,128.0000000000,38.0000000000,0.0000000000
1717675137228,207.0000000000,209.0000000000,246.0000000000,127.0000000000,37.0000000000,0.0000000000
1717675137228,207.0000000000,207.0000000000,243.0000000000,127.0000000000,36.0000000000,0.0000000000
1717675137228,205.0000000000,207.0000000000,243.0000000000,126.0000000000,38.0000000000,0.0000000000
1717675137228,204.0000000000,206.0000000000,241.0000000000,126.0000000000,38.0000000000,0.0000000000
1717675137228,203.0000000000,204.0000000000,334.0000000000,124.0000000000,38.0000000000,0.0000000000
1717675137228,201.0000000000,203.0000000000,327.0000000000,124.0000000000,37.0000000000,0.0000000000
1717675137228,199.0000000000,201.0000000000,388.0000000000,123.0000000000,37.0000000000,0.0000000000
1717675137229,199.0000000000,199.0000000000,384.0000000000,122.0000000000,36.0000000000,0.0000000000
1717675137229,198.0000000000,199.0000000000,381.0000000000,121.0000000000,36.0000000000,0.0000000000
1717675137243,196.0000000000,198.0000000000,377.0000000000,121.0000000000,36.0000000000,0.0000000000
1717675137244,195.0000000000,197.0000000000,375.0000000000,120.0000000000,35.0000000000,0.0000000000
1717675137245,194.0000000000,284.0000000000,396.0000000000,120.0000000000,35.0000000000,0.0000000000
1717675137245,240.0000000000,280.0000000000,444.0000000000,135.0000000000,35.0000000000,0.0000000000
1717675137246,239.0000000000,278.0000000000,440.0000000000,134.0000000000,35.0000000000,0.0000000000
1717675137246,237.0000000000,275.0000000000,435.0000000000,134.0000000000,35.0000000000,0.0000000000
1717675137246,235.0000000000,273.0000000000,432.0000000000,132.0000000000,35.0000000000,0.0000000000
1717675137246,233.0000000000,271.0000000000,428.0000000000,131.0000000000,35.0000000000,0.0000000000
1717675137246,231.0000000000,269.0000000000,424.0000000000,130.0000000000,35.0000000000,0.0000000000
1717675137261,230.0000000000,268.0000000000,422.0000000000,129.0000000000,34.0000000000,0.0000000000
1717675137262,271.0000000000,265.0000000000,417.0000000000,129.0000000000,33.0000000000,0.0000000000
1717675137263,337.0000000000,263.0000000000,415.0000000000,127.0000000000,33.0000000000,0.0000000000
1717675137263,335.0000000000,262.0000000000,412.0000000000,127.0000000000,33.0000000000,0.0000000000
1717675137263,385.0000000000,260.0000000000,408.0000000000,126.0000000000,33.0000000000,0.0000000000
1717675137263,381.0000000000,259.0000000000,404.0000000000,125.0000000000,33.0000000000,0.0000000000
1717675137263,377.0000000000,257.0000000000,402.0000000000,124.0000000000,33.0000000000,0.0000000000
1717675137263,375.0000000000,255.0000000000,399.0000000000,124.0000000000,35.0000000000,0.0000000000
1717675137278,371.0000000000,254.0000000000,449.0000000000,123.0000000000,35.0000000000,0.0000000000
1717675137279,368.0000000000,252.0000000000,482.0000000000,122.0000000000,34.0000000000,0.0000000000
1717675137279,365.0000000000,250.0000000000,478.0000000000,121.0000000000,34.0000000000,0.0000000000
1717675137279,362.0000000000,248.0000000000,473.0000000000,120.0000000000,33.0000000000,0.0000000000
1717675137279,359.0000000000,246.0000000000,470.0000000000,120.0000000000,34.0000000000,0.0000000000
1717675137280,356.0000000000,245.0000000000,465.0000000000,119.0000000000,33.0000000000,0.0000000000
1717675137280,353.0000000000,243.0000000000,461.0000000000,118.0000000000,33.0000000000,0.0000000000
1717675137280,352.0000000000,242.0000000000,457.0000000000,130.0000000000,33.0000000000,0.0000000000
1717675137280,348.0000000000,240.0000000000,455.0000000000,129.0000000000,33.0000000000,0.0000000000
1717675137296,346.0000000000,239.0000000000,450.0000000000,127.0000000000,33.0000000000,0.0000000000
1717675137297,344.0000000000,327.0000000000,502.0000000000,127.0000000000,33.0000000000,0.0000000000
1717675137297,340.0000000000,334.0000000000,497.0000000000,126.0000000000,33.0000000000,0.0000000000
1717675137297,338.0000000000,331.0000000000,492.0000000000,125.0000000000,33.0000000000,0.0000000000
1717675137297,335.0000000000,327.0000000000,487.0000000000,125.0000000000,31.0000000000,0.0000000000
1717675137298,334.0000000000,326.0000000000,483.0000000000,124.0000000000,31.0000000000,0.0000000000
1717675137298,331.0000000000,323.0000000000,480.0000000000,123.0000000000,31.0000000000,0.0000000000
1717675137298,327.0000000000,319.0000000000,476.0000000000,122.0000000000,31.0000000000,0.0000000000
1717675137298,327.0000000000,319.0000000000,553.0000000000,121.0000000000,31.0000000000,0.0000000000
1717675137298,323.0000000000,316.0000000000,575.0000000000,120.0000000000,31.0000000000,0.0000000000
1717675137298,322.0000000000,313.0000000000,572.0000000000,120.0000000000,31.0000000000,0.0000000000
1717675137313,319.0000000000,312.0000000000,566.0000000000,119.0000000000,31.0000000000,0.0000000000
1717675137314,318.0000000000,310.0000000000,560.0000000000,119.0000000000,31.0000000000,0.0000000000
1717675137314,316.0000000000,307.0000000000,553.0000000000,117.0000000000,31.0000000000,0.0000000000
1717675137314,312.0000000000,305.0000000000,550.0000000000,121.0000000000,30.0000000000,0.0000000000
1717675137314,312.0000000000,302.0000000000,544.0000000000,123.0000000000,30.0000000000,0.0000000000
1717675137314,308.0000000000,301.0000000000,540.0000000000,122.0000000000,30.0000000000,0.0000000000
1717675137314,307.0000000000,299.0000000000,535.0000000000,121.0000000000,30.0000000000,0.0000000000
1717675137314,304.0000000000,360.0000000000,531.0000000000,120.0000000000,30.0000000000,0.0000000000
1717675137315,303.0000000000,356.0000000000,526.0000000000,120.0000000000,30.0000000000,0.0000000000
1717675137329,300.0000000000,354.0000000000,521.0000000000,120.0000000000,30.0000000000,0.0000000000
1717675137329,298.0000000000,352.0000000000,516.0000000000,118.0000000000,34.0000000000,0.0000000000
1717675137330,295.0000000000,348.0000000000,512.0000000000,117.0000000000,35.0000000000,0.0000000000
1717675137330,295.0000000000,345.0000000000,508.0000000000,116.0000000000,35.0000000000,0.0000000000
1717675137330,292.0000000000,344.0000000000,504.0000000000,115.0000000000,35.0000000000,0.0000000000
1717675137330,291.0000000000,344.0000000000,499.0000000000,115.0000000000,35.0000000000,0.0000000000
1717675137343,289.0000000000,339.0000000000,496.0000000000,114.0000000000,34.0000000000,0.0000000000
1717675137344,287.0000000000,337.0000000000,492.0000000000,113.0000000000,35.0000000000,0.0000000000
1717675137344,285.0000000000,335.0000000000,487.0000000000,112.0000000000,34.0000000000,0.0000000000
1717675137345,284.0000000000,333.0000000000,483.0000000000,112.0000000000,34.0000000000,0.0000000000
1717675137345,281.0000000000,330.0000000000,480.0000000000,112.0000000000,33.0000000000,0.0000000000
1717675137345,280.0000000000,327.0000000000,477.0000000000,111.0000000000,33.0000000000,0.0000000000
1717675137345,278.0000000000,326.0000000000,473.0000000000,110.0000000000,33.0000000000,0.0000000000
1717675137345,276.0000000000,323.0000000000,470.0000000000,110.0000000000,33.0000000000,0.0000000000
1717675137345,274.0000000000,321.0000000000,466.0000000000,109.0000000000,32.0000000000,0.0000000000
1717675137364,273.0000000000,319.0000000000,463.0000000000,108.0000000000,32.0000000000,0.0000000000
1717675137365,271.0000000000,316.0000000000,459.0000000000,108.0000000000,31.0000000000,0.0000000000
1717675137365,269.0000000000,315.0000000000,455.0000000000,108.0000000000,31.0000000000,0.0000000000
1717675137365,268.0000000000,312.0000000000,451.0000000000,113.0000000000,31.0000000000,0.0000000000
1717675137365,265.0000000000,310.0000000000,449.0000000000,139.0000000000,31.0000000000,0.0000000000
1717675137365,263.0000000000,307.0000000000,446.0000000000,137.0000000000,31.0000000000,0.0000000000
1717675137365,263.0000000000,306.0000000000,442.0000000000,135.0000000000,31.0000000000,0.0000000000
1717675137365,261.0000000000,304.0000000000,440.0000000000,163.0000000000,31.0000000000,0.0000000000
1717675137366,259.0000000000,302.0000000000,435.0000000000,161.0000000000,33.0000000000,0.0000000000
1717675137366,258.0000000000,300.0000000000,433.0000000000,159.0000000000,33.0000000000,0.0000000000
1717675137366,255.0000000000,298.0000000000,430.0000000000,159.0000000000,33.0000000000,0.0000000000
1717675137384,255.0000000000,295.0000000000,426.0000000000,158.0000000000,32.0000000000,0.0000000000
1717675137384,254.0000000000,312.0000000000,448.0000000000,157.0000000000,31.0000000000,0.0000000000
1717675137385,252.0000000000,342.0000000000,499.0000000000,156.0000000000,31.0000000000,0.0000000000
1717675137385,251.0000000000,339.0000000000,494.0000000000,155.0000000000,31.0000000000,0.0000000000
1717675137385,248.0000000000,336.0000000000,488.0000000000,153.0000000000,31.0000000000,0.0000000000
1717675137385,248.0000000000,334.0000000000,484.0000000000,152.0000000000,31.0000000000,0.0000000000
1717675137385,246.0000000000,332.0000000000,481.0000000000,152.0000000000,31.0000000000,0.0000000000
1717675137385,243.0000000000,328.0000000000,477.0000000000,150.0000000000,31.0000000000,0.0000000000
1717675137385,243.0000000000,327.0000000000,472.0000000000,150.0000000000,31.0000000000,0.0000000000
1717675137386,241.0000000000,323.0000000000,468.0000000000,148.0000000000,31.0000000000,0.0000000000
1717675137386,240.0000000000,321.0000000000,465.0000000000,147.0000000000,31.0000000000,0.0000000000
1717675137403,238.0000000000,319.0000000000,462.0000000000,146.0000000000,30.0000000000,0.0000000000
1717675137406,237.0000000000,353.0000000000,457.0000000000,145.0000000000,31.0000000000,0.0000000000
1717675137407,236.0000000000,363.0000000000,454.0000000000,144.0000000000,30.0000000000,0.0000000000
1717675137407,234.0000000000,359.0000000000,451.0000000000,143.0000000000,30.0000000000,0.0000000000
1717675137408,232.0000000000,356.0000000000,447.0000000000,143.0000000000,30.0000000000,0.0000000000
1717675137409,231.0000000000,355.0000000000,444.0000000000,142.0000000000,30.0000000000,0.0000000000
1717675137409,230.0000000000,352.0000000000,440.0000000000,141.0000000000,30.0000000000,0.0000000000
1717675137410,228.0000000000,348.0000000000,436.0000000000,140.0000000000,29.0000000000,0.0000000000
1717675137410,227.0000000000,345.0000000000,433.0000000000,139.0000000000,29.0000000000,0.0000000000
1717675137411,226.0000000000,344.0000000000,430.0000000000,159.0000000000,29.0000000000,0.0000000000
1717675137411,225.0000000000,340.0000000000,427.0000000000,158.0000000000,28.0000000000,0.0000000000
1717675137411,224.0000000000,339.0000000000,423.0000000000,156.0000000000,28.0000000000,0.0000000000
1717675137411,222.0000000000,336.0000000000,420.0000000000,155.0000000000,28.0000000000,0.0000000000
1717675137456,220.0000000000,335.0000000000,417.0000000000,155.0000000000,28.0000000000,0.0000000000
1717675137459,220.0000000000,332.0000000000,519.0000000000,153.0000000000,28.0000000000,0.0000000000
1717675137459,219.0000000000,329.0000000000,514.0000000000,152.0000000000,28.0000000000,0.0000000000
1717675137460,217.0000000000,327.0000000000,510.0000000000,241.0000000000,28.0000000000,0.0000000000
1717675137460,216.0000000000,326.0000000000,504.0000000000,240.0000000000,28.0000000000,0.0000000000
1717675137460,215.0000000000,323.0000000000,499.0000000000,237.0000000000,28.0000000000,0.0000000000
1717675137460,214.0000000000,321.0000000000,496.0000000000,235.0000000000,28.0000000000,0.0000000000
1717675137461,212.0000000000,319.0000000000,492.0000000000,232.0000000000,28.0000000000,0.0000000000
1717675137461,211.0000000000,316.0000000000,487.0000000000,231.0000000000,27.0000000000,0.0000000000
1717675137461,210.0000000000,314.0000000000,483.0000000000,230.0000000000,27.0000000000,0.0000000000
1717675137461,208.0000000000,312.0000000000,479.0000000000,228.0000000000,27.0000000000,0.0000000000
1717675137461,207.0000000000,310.0000000000,476.0000000000,226.0000000000,27.0000000000,0.0000000000
1717675137461,206.0000000000,307.0000000000,472.0000000000,225.0000000000,27.0000000000,0.0000000000
1717675137461,206.0000000000,305.0000000000,467.0000000000,224.0000000000,26.0000000000,0.0000000000
1717675137461,204.0000000000,304.0000000000,463.0000000000,222.0000000000,27.0000000000,0.0000000000
1717675137461,203.0000000000,302.0000000000,460.0000000000,220.0000000000,27.0000000000,0.0000000000
1717675137461,201.0000000000,300.0000000000,457.0000000000,219.0000000000,35.0000000000,0.0000000000
1717675137461,199.0000000000,397.0000000000,454.0000000000,217.0000000000,35.0000000000,0.0000000000
1717675137462,199.0000000000,391.0000000000,449.0000000000,216.0000000000,35.0000000000,0.0000000000
1717675137462,199.0000000000,387.0000000000,447.0000000000,215.0000000000,34.0000000000,0.0000000000
1717675137462,196.0000000000,384.0000000000,443.0000000000,213.0000000000,34.0000000000,0.0000000000
1717675137462,196.0000000000,381.0000000000,440.0000000000,211.0000000000,34.0000000000,0.0000000000
1717675137462,195.0000000000,377.0000000000,435.0000000000,210.0000000000,33.0000000000,0.0000000000
1717675137462,194.0000000000,374.0000000000,433.0000000000,208.0000000000,33.0000000000,0.0000000000
1717675137462,193.0000000000,371.0000000000,430.0000000000,207.0000000000,33.0000000000,0.0000000000
1717675137462,192.0000000000,390.0000000000,426.0000000000,206.0000000000,33.0000000000,0.0000000000
1717675137462,191.0000000000,386.0000000000,423.0000000000,205.0000000000,33.0000000000,0.0000000000
1717675137463,190.0000000000,383.0000000000,420.0000000000,204.0000000000,34.0000000000,0.0000000000
1717675137463,189.0000000000,380.0000000000,417.0000000000,203.0000000000,34.0000000000,0.0000000000
1717675137476,188.0000000000,377.0000000000,414.0000000000,201.0000000000,33.0000000000,0.0000000000
1717675137477,187.0000000000,374.0000000000,411.0000000000,199.0000000000,33.0000000000,0.0000000000
1717675137478,185.0000000000,371.0000000000,408.0000000000,199.0000000000,33.0000000000,0.0000000000
1717675137478,184.0000000000,368.0000000000,457.0000000000,227.0000000000,32.0000000000,0.0000000000
1717675137478,184.0000000000,364.0000000000,452.0000000000,230.0000000000,33.0000000000,0.0000000000
1717675137478,183.0000000000,390.0000000000,448.0000000000,228.0000000000,31.0000000000,0.0000000000
1717675137478,182.0000000000,385.0000000000,445.0000000000,226.0000000000,32.0000000000,0.0000000000
1717675137478,180.0000000000,382.0000000000,443.0000000000,224.0000000000,31.0000000000,0.0000000000
1717675137494,179.0000000000,379.0000000000,439.0000000000,223.0000000000,31.0000000000,0.0000000000
1717675137495,179.0000000000,376.0000000000,435.0000000000,222.0000000000,33.0000000000,0.0000000000
1717675137495,178.0000000000,373.0000000000,431.0000000000,220.0000000000,33.0000000000,0.0000000000
1717675137495,176.0000000000,370.0000000000,428.0000000000,219.0000000000,33.0000000000,0.0000000000
1717675137495,176.0000000000,368.0000000000,423.0000000000,216.0000000000,32.0000000000,0.0000000000
1717675137495,175.0000000000,365.0000000000,432.0000000000,216.0000000000,32.0000000000,0.0000000000
1717675137495,174.0000000000,362.0000000000,508.0000000000,214.0000000000,32.0000000000,0.0000000000
1717675137495,172.0000000000,359.0000000000,504.0000000000,212.0000000000,31.0000000000,0.0000000000
1717675137495,172.0000000000,356.0000000000,499.0000000000,211.0000000000,31.0000000000,0.0000000000
1717675137509,171.0000000000,355.0000000000,495.0000000000,210.0000000000,31.0000000000,0.0000000000
1717675137510,170.0000000000,352.0000000000,490.0000000000,208.0000000000,31.0000000000,0.0000000000
1717675137510,169.0000000000,350.0000000000,487.0000000000,207.0000000000,35.0000000000,0.0000000000
1717675137511,167.0000000000,347.0000000000,482.0000000000,206.0000000000,38.0000000000,0.0000000000
1717675137511,167.0000000000,344.0000000000,478.0000000000,205.0000000000,38.0000000000,0.0000000000
1717675137512,167.0000000000,342.0000000000,473.0000000000,203.0000000000,38.0000000000,0.0000000000
1717675137512,166.0000000000,339.0000000000,471.0000000000,201.0000000000,38.0000000000,0.0000000000
1717675137512,164.0000000000,337.0000000000,467.0000000000,199.0000000000,36.0000000000,0.0000000000
1717675137513,163.0000000000,335.0000000000,463.0000000000,199.0000000000,36.0000000000,0.0000000000
1717675137529,163.0000000000,333.0000000000,499.0000000000,198.0000000000,36.0000000000,0.0000000000
1717675137530,162.0000000000,331.0000000000,496.0000000000,196.0000000000,35.0000000000,0.0000000000
1717675137530,161.0000000000,327.0000000000,491.0000000000,195.0000000000,36.0000000000,0.0000000000
1717675137530,160.0000000000,326.0000000000,486.0000000000,194.0000000000,35.0000000000,0.0000000000
1717675137530,159.0000000000,323.0000000000,481.0000000000,193.0000000000,35.0000000000,0.0000000000
1717675137530,159.0000000000,321.0000000000,478.0000000000,192.0000000000,35.0000000000,0.0000000000
1717675137530,158.0000000000,319.0000000000,474.0000000000,191.0000000000,35.0000000000,0.0000000000
1717675137530,158.0000000000,318.0000000000,470.0000000000,190.0000000000,35.0000000000,0.0000000000
1717675137531,156.0000000000,316.0000000000,465.0000000000,188.0000000000,34.0000000000,0.0000000000
1717675137545,156.0000000000,313.0000000000,463.0000000000,187.0000000000,34.0000000000,0.0000000000
1717675137546,155.0000000000,311.0000000000,459.0000000000,186.0000000000,34.0000000000,0.0000000000
1717675137546,153.0000000000,309.0000000000,455.0000000000,185.0000000000,33.0000000000,0.0000000000
1717675137547,153.0000000000,307.0000000000,451.0000000000,184.0000000000,33.0000000000,0.0000000000
1717675137547,152.0000000000,305.0000000000,448.0000000000,183.0000000000,33.0000000000,0.0000000000
1717675137547,152.0000000000,304.0000000000,445.0000000000,182.0000000000,33.0000000000,0.0000000000
1717675137547,151.0000000000,301.0000000000,441.0000000000,180.0000000000,33.0000000000,0.0000000000
1717675137548,150.0000000000,331.0000000000,438.0000000000,179.0000000000,33.0000000000,0.0000000000
1717675137548,149.0000000000,327.0000000000,467.0000000000,178.0000000000,32.0000000000,0.0000000000
1717675137548,148.0000000000,323.0000000000,463.0000000000,177.0000000000,32.0000000000,0.0000000000
1717675137548,147.0000000000,321.0000000000,459.0000000000,176.0000000000,31.0000000000,0.0000000000
1717675137571,198.0000000000,319.0000000000,455.0000000000,176.0000000000,31.0000000000,0.0000000000
1717675137572,198.0000000000,317.0000000000,451.0000000000,174.0000000000,31.0000000000,0.0000000000
1717675137572,195.0000000000,314.0000000000,448.0000000000,173.0000000000,31.0000000000,0.0000000000
1717675137572,195.0000000000,312.0000000000,444.0000000000,172.0000000000,31.0000000000,0.0000000000
1717675137572,193.0000000000,311.0000000000,440.0000000000,171.0000000000,31.0000000000,0.0000000000
1717675137572,192.0000000000,307.0000000000,437.0000000000,169.0000000000,31.0000000000,0.0000000000
1717675137572,191.0000000000,305.0000000000,433.0000000000,168.0000000000,31.0000000000,0.0000000000
1717675137572,189.0000000000,304.0000000000,431.0000000000,167.0000000000,30.0000000000,0.0000000000
1717675137572,188.0000000000,301.0000000000,427.0000000000,167.0000000000,31.0000000000,0.0000000000
1717675137572,187.0000000000,300.0000000000,423.0000000000,166.0000000000,30.0000000000,0.0000000000
1717675137573,185.0000000000,297.0000000000,420.0000000000,166.0000000000,30.0000000000,0.0000000000
1717675137573,209.0000000000,295.0000000000,418.0000000000,252.0000000000,30.0000000000,0.0000000000
1717675137573,207.0000000000,294.0000000000,415.0000000000,292.0000000000,30.0000000000,0.0000000000
1717675137588,206.0000000000,291.0000000000,412.0000000000,289.0000000000,29.0000000000,0.0000000000
1717675137588,204.0000000000,290.0000000000,409.0000000000,287.0000000000,30.0000000000,0.0000000000
1717675137589,203.0000000000,287.0000000000,406.0000000000,284.0000000000,28.0000000000,0.0000000000
1717675137589,201.0000000000,287.0000000000,403.0000000000,282.0000000000,29.0000000000,0.0000000000
1717675137589,199.0000000000,284.0000000000,399.0000000000,280.0000000000,29.0000000000,0.0000000000
1717675137589,199.0000000000,283.0000000000,398.0000000000,278.0000000000,29.0000000000,0.0000000000
1717675137589,198.0000000000,281.0000000000,440.0000000000,275.0000000000,28.0000000000,0.0000000000
1717675137589,196.0000000000,280.0000000000,559.0000000000,273.0000000000,28.0000000000,0.0000000000
1717675137589,194.0000000000,278.0000000000,552.0000000000,272.0000000000,28.0000000000,0.0000000000
1717675137604,193.0000000000,337.0000000000,547.0000000000,270.0000000000,28.0000000000,0.0000000000
1717675137605,192.0000000000,334.0000000000,543.0000000000,268.0000000000,28.0000000000,0.0000000000
1717675137605,191.0000000000,331.0000000000,537.0000000000,266.0000000000,28.0000000000,0.0000000000
1717675137605,268.0000000000,329.0000000000,532.0000000000,263.0000000000,28.0000000000,0.0000000000
1717675137605,263.0000000000,326.0000000000,527.0000000000,263.0000000000,27.0000000000,0.0000000000
1717675137605,262.0000000000,323.0000000000,524.0000000000,260.0000000000,32.0000000000,0.0000000000
1717675137606,259.0000000000,321.0000000000,519.0000000000,259.0000000000,33.0000000000,0.0000000000
1717675137606,258.0000000000,319.0000000000,514.0000000000,257.0000000000,33.0000000000,0.0000000000
1717675137625,255.0000000000,317.0000000000,510.0000000000,255.0000000000,33.0000000000,0.0000000000
1717675137625,254.0000000000,313.0000000000,505.0000000000,254.0000000000,33.0000000000,0.0000000000
1717675137626,252.0000000000,312.0000000000,502.0000000000,252.0000000000,32.0000000000,0.0000000000
1717675137626,251.0000000000,311.0000000000,510.0000000000,251.0000000000,31.0000000000,0.0000000000
1717675137626,248.0000000000,307.0000000000,505.0000000000,249.0000000000,31.0000000000,0.0000000000
1717675137626,247.0000000000,305.0000000000,502.0000000000,248.0000000000,32.0000000000,0.0000000000
1717675137626,245.0000000000,361.0000000000,497.0000000000,245.0000000000,31.0000000000,0.0000000000
1717675137627,243.0000000000,359.0000000000,492.0000000000,244.0000000000,31.0000000000,0.0000000000
1717675137627,242.0000000000,355.0000000000,488.0000000000,243.0000000000,31.0000000000,0.0000000000
1717675137627,240.0000000000,353.0000000000,486.0000000000,241.0000000000,31.0000000000,0.0000000000
1717675137627,239.0000000000,350.0000000000,481.0000000000,239.0000000000,31.0000000000,0.0000000000
1717675137642,237.0000000000,348.0000000000,477.0000000000,238.0000000000,31.0000000000,0.0000000000
1717675137642,236.0000000000,344.0000000000,473.0000000000,236.0000000000,31.0000000000,0.0000000000
1717675137643,233.0000000000,342.0000000000,471.0000000000,235.0000000000,30.0000000000,0.0000000000
1717675137643,232.0000000000,339.0000000000,523.0000000000,233.0000000000,30.0000000000,0.0000000000
1717675137644,231.0000000000,336.0000000000,528.0000000000,231.0000000000,30.0000000000,0.0000000000
1717675137644,229.0000000000,335.0000000000,524.0000000000,230.0000000000,29.0000000000,0.0000000000
1717675137644,227.0000000000,332.0000000000,519.0000000000,229.0000000000,30.0000000000,0.0000000000
1717675137644,227.0000000000,329.0000000000,515.0000000000,227.0000000000,29.0000000000,0.0000000000
1717675137644,225.0000000000,353.0000000000,510.0000000000,226.0000000000,29.0000000000,0.0000000000
1717675137658,224.0000000000,425.0000000000,504.0000000000,225.0000000000,29.0000000000,0.0000000000
1717675137659,222.0000000000,420.0000000000,500.0000000000,223.0000000000,28.0000000000,0.0000000000
1717675137659,220.0000000000,415.0000000000,497.0000000000,222.0000000000,29.0000000000,0.0000000000
1717675137659,219.0000000000,412.0000000000,492.0000000000,220.0000000000,28.0000000000,0.0000000000
1717675137659,217.0000000000,410.0000000000,487.0000000000,220.0000000000,28.0000000000,0.0000000000
1717675137659,216.0000000000,407.0000000000,483.0000000000,217.0000000000,28.0000000000,0.0000000000
1717675137659,215.0000000000,403.0000000000,480.0000000000,216.0000000000,28.0000000000,0.0000000000
1717675137659,214.0000000000,399.0000000000,477.0000000000,216.0000000000,27.0000000000,0.0000000000
1717675137660,212.0000000000,397.0000000000,472.0000000000,214.0000000000,27.0000000000,0.0000000000
1717675137673,211.0000000000,393.0000000000,468.0000000000,213.0000000000,28.0000000000,0.0000000000
1717675137674,209.0000000000,398.0000000000,466.0000000000,211.0000000000,27.0000000000,0.0000000000
1717675137674,207.0000000000,498.0000000000,517.0000000000,210.0000000000,27.0000000000,0.0000000000
1717675137674,207.0000000000,494.0000000000,512.0000000000,209.0000000000,27.0000000000,0.0000000000
1717675137675,206.0000000000,488.0000000000,507.0000000000,207.0000000000,27.0000000000,0.0000000000
1717675137675,205.0000000000,483.0000000000,504.0000000000,206.0000000000,26.0000000000,0.0000000000
1717675137675,204.0000000000,480.0000000000,499.0000000000,204.0000000000,27.0000000000,0.0000000000
1717675137676,202.0000000000,476.0000000000,494.0000000000,204.0000000000,25.0000000000,0.0000000000
1717675137678,200.0000000000,472.0000000000,489.0000000000,203.0000000000,25.0000000000,0.0000000000
1717675137679,199.0000000000,467.0000000000,487.0000000000,245.0000000000,25.0000000000,0.0000000000
1717675137679,199.0000000000,463.0000000000,482.0000000000,242.0000000000,31.0000000000,0.0000000000
1717675137700,197.0000000000,460.0000000000,478.0000000000,240.0000000000,60.0000000000,0.0000000000
1717675137702,195.0000000000,455.0000000000,473.0000000000,239.0000000000,60.0000000000,0.0000000000
1717675137702,195.0000000000,452.0000000000,486.0000000000,237.0000000000,59.0000000000,0.0000000000
1717675137702,193.0000000000,448.0000000000,542.0000000000,236.0000000000,59.0000000000,0.0000000000
1717675137702,192.0000000000,444.0000000000,536.0000000000,233.0000000000,58.0000000000,0.0000000000
1717675137703,192.0000000000,441.0000000000,531.0000000000,231.0000000000,58.0000000000,0.0000000000
1717675137703,190.0000000000,438.0000000000,526.0000000000,231.0000000000,57.0000000000,0.0000000000
1717675137703,189.0000000000,434.0000000000,523.0000000000,228.0000000000,57.0000000000,0.0000000000
1717675137703,188.0000000000,431.0000000000,518.0000000000,227.0000000000,56.0000000000,0.0000000000
1717675137704,187.0000000000,428.0000000000,636.0000000000,226.0000000000,56.0000000000,0.0000000000
1717675137704,185.0000000000,424.0000000000,627.0000000000,224.0000000000,67.0000000000,0.0000000000
1717675137704,184.0000000000,421.0000000000,622.0000000000,223.0000000000,67.0000000000,0.0000000000
1717675137705,184.0000000000,417.0000000000,615.0000000000,221.0000000000,66.0000000000,0.0000000000
1717675137721,182.0000000000,415.0000000000,608.0000000000,220.0000000000,65.0000000000,0.0000000000
1717675137722,182.0000000000,412.0000000000,602.0000000000,218.0000000000,65.0000000000,0.0000000000
1717675137722,179.0000000000,408.0000000000,598.0000000000,216.0000000000,65.0000000000,0.0000000000
1717675137722,179.0000000000,406.0000000000,591.0000000000,216.0000000000,64.0000000000,0.0000000000
1717675137722,244.0000000000,403.0000000000,587.0000000000,215.0000000000,63.0000000000,0.0000000000
1717675137722,321.0000000000,436.0000000000,580.0000000000,212.0000000000,63.0000000000,0.0000000000
1717675137722,318.0000000000,432.0000000000,575.0000000000,211.0000000000,63.0000000000,0.0000000000
1717675137722,316.0000000000,483.0000000000,571.0000000000,210.0000000000,63.0000000000,0.0000000000
1717675137722,312.0000000000,480.0000000000,566.0000000000,208.0000000000,62.0000000000,0.0000000000
1717675137737,310.0000000000,475.0000000000,560.0000000000,207.0000000000,62.0000000000,0.0000000000
1717675137738,307.0000000000,471.0000000000,556.0000000000,206.0000000000,62.0000000000,0.0000000000
1717675137738,305.0000000000,465.0000000000,551.0000000000,204.0000000000,61.0000000000,0.0000000000
1717675137738,303.0000000000,462.0000000000,546.0000000000,204.0000000000,60.0000000000,0.0000000000
1717675137738,364.0000000000,459.0000000000,541.0000000000,202.0000000000,60.0000000000,0.0000000000
1717675137738,359.0000000000,454.0000000000,536.0000000000,200.0000000000,60.0000000000,0.0000000000
1717675137738,356.0000000000,449.0000000000,532.0000000000,199.0000000000,59.0000000000,0.0000000000
1717675137738,353.0000000000,448.0000000000,527.0000000000,199.0000000000,59.0000000000,0.0000000000
1717675137753,351.0000000000,444.0000000000,523.0000000000,198.0000000000,59.0000000000,0.0000000000
1717675137753,348.0000000000,440.0000000000,519.0000000000,196.0000000000,59.0000000000,0.0000000000
1717675137753,345.0000000000,436.0000000000,515.0000000000,195.0000000000,63.0000000000,0.0000000000
1717675137753,344.0000000000,432.0000000000,511.0000000000,194.0000000000,63.0000000000,0.0000000000
1717675137753,340.0000000000,430.0000000000,507.0000000000,193.0000000000,62.0000000000,0.0000000000
1717675137754,337.0000000000,425.0000000000,502.0000000000,192.0000000000,62.0000000000,0.0000000000
1717675137754,335.0000000000,423.0000000000,499.0000000000,190.0000000000,62.0000000000,0.0000000000
1717675137754,332.0000000000,419.0000000000,495.0000000000,189.0000000000,61.0000000000,0.0000000000
1717675137754,329.0000000000,415.0000000000,491.0000000000,188.0000000000,60.0000000000,0.0000000000
1717675137768,327.0000000000,413.0000000000,487.0000000000,187.0000000000,60.0000000000,0.0000000000
1717675137768,326.0000000000,409.0000000000,483.0000000000,187.0000000000,60.0000000000,0.0000000000
1717675137768,323.0000000000,407.0000000000,480.0000000000,184.0000000000,59.0000000000,0.0000000000
1717675137769,321.0000000000,404.0000000000,476.0000000000,184.0000000000,59.0000000000,0.0000000000
1717675137769,319.0000000000,401.0000000000,472.0000000000,183.0000000000,59.0000000000,0.0000000000
1717675137769,316.0000000000,398.0000000000,470.0000000000,182.0000000000,57.0000000000,0.0000000000
1717675137769,313.0000000000,395.0000000000,472.0000000000,181.0000000000,58.0000000000,0.0000000000
1717675137769,312.0000000000,391.0000000000,467.0000000000,179.0000000000,57.0000000000,0.0000000000
1717675137769,310.0000000000,390.0000000000,551.0000000000,179.0000000000,57.0000000000,0.0000000000
1717675137786,307.0000000000,386.0000000000,547.0000000000,177.0000000000,56.0000000000,0.0000000000
1717675137788,305.0000000000,384.0000000000,542.0000000000,177.0000000000,56.0000000000,0.0000000000
1717675137788,304.0000000000,382.0000000000,536.0000000000,176.0000000000,56.0000000000,0.0000000000
1717675137788,301.0000000000,379.0000000000,531.0000000000,175.0000000000,56.0000000000,0.0000000000
1717675137788,299.0000000000,376.0000000000,527.0000000000,174.0000000000,56.0000000000,0.0000000000
1717675137789,297.0000000000,430.0000000000,556.0000000000,173.0000000000,55.0000000000,0.0000000000
1717675137789,295.0000000000,432.0000000000,619.0000000000,172.0000000000,55.0000000000,0.0000000000
1717675137789,293.0000000000,428.0000000000,611.0000000000,171.0000000000,54.0000000000,0.0000000000
1717675137789,291.0000000000,423.0000000000,606.0000000000,169.0000000000,54.0000000000,0.0000000000
1717675137790,289.0000000000,419.0000000000,600.0000000000,168.0000000000,54.0000000000,0.0000000000
1717675137790,287.0000000000,417.0000000000,593.0000000000,167.0000000000,52.0000000000,0.0000000000
1717675137808,285.0000000000,414.0000000000,588.0000000000,167.0000000000,52.0000000000,0.0000000000
1717675137809,283.0000000000,411.0000000000,583.0000000000,166.0000000000,52.0000000000,0.0000000000
1717675137809,281.0000000000,407.0000000000,577.0000000000,164.0000000000,52.0000000000,0.0000000000
1717675137809,280.0000000000,403.0000000000,572.0000000000,164.0000000000,51.0000000000,0.0000000000
1717675137809,278.0000000000,404.0000000000,568.0000000000,163.0000000000,51.0000000000,0.0000000000
1717675137809,275.0000000000,455.0000000000,561.0000000000,163.0000000000,51.0000000000,0.0000000000
1717675137809,274.0000000000,449.0000000000,558.0000000000,161.0000000000,51.0000000000,0.0000000000
1717675137809,272.0000000000,445.0000000000,551.0000000000,159.0000000000,50.0000000000,0.0000000000
1717675137809,271.0000000000,443.0000000000,547.0000000000,159.0000000000,50.0000000000,0.0000000000
1717675137823,269.0000000000,439.0000000000,542.0000000000,158.0000000000,50.0000000000,0.0000000000
1717675137824,268.0000000000,435.0000000000,538.0000000000,158.0000000000,50.0000000000,0.0000000000
1717675137824,265.0000000000,431.0000000000,533.0000000000,156.0000000000,49.0000000000,0.0000000000
1717675137824,263.0000000000,428.0000000000,528.0000000000,156.0000000000,49.0000000000,0.0000000000
1717675137824,263.0000000000,424.0000000000,524.0000000000,254.0000000000,48.0000000000,0.0000000000
1717675137824,260.0000000000,485.0000000000,519.0000000000,268.0000000000,48.0000000000,0.0000000000
1717675137824,259.0000000000,480.0000000000,516.0000000000,265.0000000000,48.0000000000,0.0000000000
1717675137824,257.0000000000,477.0000000000,511.0000000000,263.0000000000,76.0000000000,0.0000000000
1717675137838,255.0000000000,472.0000000000,508.0000000000,262.0000000000,75.0000000000,0.0000000000
1717675137838,255.0000000000,467.0000000000,504.0000000000,259.0000000000,75.0000000000,0.0000000000
1717675137839,253.0000000000,463.0000000000,499.0000000000,257.0000000000,75.0000000000,0.0000000000
1717675137839,252.0000000000,460.0000000000,495.0000000000,255.0000000000,73.0000000000,0.0000000000
1717675137839,249.0000000000,455.0000000000,491.0000000000,254.0000000000,73.0000000000,0.0000000000
1717675137839,248.0000000000,452.0000000000,487.0000000000,252.0000000000,71.0000000000,0.0000000000
1717675137839,247.0000000000,448.0000000000,483.0000000000,250.0000000000,71.0000000000,0.0000000000
1717675137839,245.0000000000,446.0000000000,480.0000000000,248.0000000000,71.0000000000,0.0000000000
1717675137839,243.0000000000,441.0000000000,476.0000000000,247.0000000000,71.0000000000,0.0000000000
1717675137854,242.0000000000,438.0000000000,473.0000000000,246.0000000000,71.0000000000,0.0000000000
1717675137854,240.0000000000,434.0000000000,470.0000000000,243.0000000000,71.0000000000,0.0000000000
1717675137854,239.0000000000,432.0000000000,465.0000000000,242.0000000000,70.0000000000,0.0000000000
1717675137854,238.0000000000,428.0000000000,462.0000000000,240.0000000000,69.0000000000,0.0000000000
1717675137855,236.0000000000,423.0000000000,459.0000000000,239.0000000000,68.0000000000,0.0000000000
1717675137855,235.0000000000,421.0000000000,455.0000000000,237.0000000000,68.0000000000,0.0000000000
1717675137855,233.0000000000,417.0000000000,451.0000000000,236.0000000000,67.0000000000,0.0000000000
1717675137855,231.0000000000,415.0000000000,448.0000000000,234.0000000000,67.0000000000,0.0000000000
1717675137855,231.0000000000,412.0000000000,445.0000000000,232.0000000000,67.0000000000,0.0000000000
1717675137870,229.0000000000,408.0000000000,443.0000000000,231.0000000000,67.0000000000,0.0000000000
1717675137870,293.0000000000,406.0000000000,440.0000000000,229.0000000000,67.0000000000,0.0000000000
1717675137871,358.0000000000,403.0000000000,435.0000000000,228.0000000000,66.0000000000,0.0000000000
1717675137871,355.0000000000,399.0000000000,432.0000000000,227.0000000000,65.0000000000,0.0000000000
1717675137871,351.0000000000,396.0000000000,430.0000000000,225.0000000000,65.0000000000,0.0000000000
1717675137871,348.0000000000,393.0000000000,427.0000000000,224.0000000000,65.0000000000,0.0000000000
1717675137871,345.0000000000,391.0000000000,423.0000000000,222.0000000000,63.0000000000,0.0000000000
1717675137871,343.0000000000,387.0000000000,420.0000000000,220.0000000000,63.0000000000,0.0000000000
1717675137872,339.0000000000,385.0000000000,418.0000000000,220.0000000000,63.0000000000,0.0000000000
1717675137888,337.0000000000,382.0000000000,415.0000000000,217.0000000000,63.0000000000,0.0000000000
1717675137889,335.0000000000,380.0000000000,412.0000000000,216.0000000000,63.0000000000,0.0000000000
1717675137889,332.0000000000,377.0000000000,409.0000000000,216.0000000000,63.0000000000,0.0000000000
1717675137889,330.0000000000,375.0000000000,408.0000000000,214.0000000000,62.0000000000,0.0000000000
1717675137890,327.0000000000,371.0000000000,403.0000000000,212.0000000000,61.0000000000,0.0000000000
1717675137890,325.0000000000,370.0000000000,401.0000000000,220.0000000000,61.0000000000,0.0000000000
1717675137890,323.0000000000,367.0000000000,398.0000000000,219.0000000000,61.0000000000,0.0000000000
1717675137890,319.0000000000,387.0000000000,396.0000000000,216.0000000000,60.0000000000,0.0000000000
1717675137920,399.0000000000,417.0000000000,393.0000000000,215.0000000000,60.0000000000,0.0000000000
1717675137921,455.0000000000,414.0000000000,390.0000000000,214.0000000000,60.0000000000,0.0000000000
1717675137921,451.0000000000,410.0000000000,387.0000000000,212.0000000000,59.0000000000,0.0000000000
1717675137921,447.0000000000,407.0000000000,385.0000000000,211.0000000000,59.0000000000,0.0000000000
1717675137921,443.0000000000,403.0000000000,384.0000000000,209.0000000000,59.0000000000,0.0000000000
1717675137922,439.0000000000,461.0000000000,380.0000000000,207.0000000000,58.0000000000,0.0000000000
1717675137922,435.0000000000,455.0000000000,377.0000000000,207.0000000000,58.0000000000,0.0000000000
1717675137922,431.0000000000,451.0000000000,376.0000000000,206.0000000000,57.0000000000,0.0000000000
1717675137922,428.0000000000,447.0000000000,374.0000000000,204.0000000000,57.0000000000,0.0000000000
1717675137922,423.0000000000,443.0000000000,371.0000000000,204.0000000000,56.0000000000,0.0000000000
1717675137922,420.0000000000,440.0000000000,464.0000000000,201.0000000000,56.0000000000,0.0000000000
1717675137923,417.0000000000,435.0000000000,460.0000000000,235.0000000000,56.0000000000,0.0000000000
1717675137923,413.0000000000,432.0000000000,455.0000000000,231.0000000000,56.0000000000,0.0000000000
1717675137923,410.0000000000,428.0000000000,451.0000000000,231.0000000000,56.0000000000,0.0000000000
1717675137923,407.0000000000,437.0000000000,448.0000000000,229.0000000000,56.0000000000,0.0000000000
1717675137924,403.0000000000,433.0000000000,444.0000000000,227.0000000000,54.0000000000,0.0000000000
1717675137924,400.0000000000,429.0000000000,440.0000000000,225.0000000000,54.0000000000,0.0000000000
1717675137924,398.0000000000,425.0000000000,500.0000000000,224.0000000000,54.0000000000,0.0000000000
1717675137942,395.0000000000,423.0000000000,495.0000000000,223.0000000000,54.0000000000,0.0000000000
1717675137943,391.0000000000,419.0000000000,490.0000000000,222.0000000000,54.0000000000,0.0000000000
1717675137944,388.0000000000,415.0000000000,524.0000000000,220.0000000000,53.0000000000,0.0000000000
1717675137946,385.0000000000,412.0000000000,518.0000000000,218.0000000000,52.0000000000,0.0000000000
1717675137946,383.0000000000,409.0000000000,512.0000000000,216.0000000000,52.0000000000,0.0000000000
1717675137947,380.0000000000,407.0000000000,508.0000000000,216.0000000000,51.0000000000,0.0000000000
1717675137947,377.0000000000,403.0000000000,504.0000000000,214.0000000000,51.0000000000,0.0000000000
1717675137948,374.0000000000,399.0000000000,499.0000000000,212.0000000000,51.0000000000,0.0000000000
1717675137948,371.0000000000,398.0000000000,495.0000000000,211.0000000000,51.0000000000,0.0000000000
1717675137949,369.0000000000,394.0000000000,491.0000000000,209.0000000000,51.0000000000,0.0000000000
1717675137950,366.0000000000,391.0000000000,579.0000000000,208.0000000000,52.0000000000,0.0000000000
1717675137951,364.0000000000,387.0000000000,572.0000000000,207.0000000000,56.0000000000,0.0000000000
1717675137951,361.0000000000,385.0000000000,567.0000000000,205.0000000000,56.0000000000,0.0000000000
1717675137952,359.0000000000,383.0000000000,560.0000000000,204.0000000000,55.0000000000,0.0000000000
1717675137953,355.0000000000,385.0000000000,556.0000000000,203.0000000000,55.0000000000,0.0000000000
1717675137954,353.0000000000,415.0000000000,551.0000000000,201.0000000000,54.0000000000,0.0000000000
1717675137955,351.0000000000,413.0000000000,545.0000000000,200.0000000000,54.0000000000,0.0000000000
1717675137986,449.0000000000,409.0000000000,540.0000000000,295.0000000000,54.0000000000,0.0000000000
1717675137986,448.0000000000,406.0000000000,536.0000000000,292.0000000000,54.0000000000,0.0000000000
1717675137986,444.0000000000,402.0000000000,532.0000000000,290.0000000000,67.0000000000,0.0000000000
1717675137986,440.0000000000,399.0000000000,527.0000000000,287.0000000000,69.0000000000,0.0000000000
1717675137987,436.0000000000,396.0000000000,522.0000000000,286.0000000000,69.0000000000,0.0000000000
1717675137987,432.0000000000,392.0000000000,518.0000000000,284.0000000000,68.0000000000,0.0000000000
1717675137987,428.0000000000,390.0000000000,513.0000000000,281.0000000000,68.0000000000,0.0000000000
1717675137987,425.0000000000,386.0000000000,508.0000000000,279.0000000000,67.0000000000,0.0000000000
1717675137987,422.0000000000,384.0000000000,504.0000000000,278.0000000000,67.0000000000,0.0000000000
1717675137987,418.0000000000,381.0000000000,500.0000000000,275.0000000000,67.0000000000,0.0000000000
1717675137987,415.0000000000,377.0000000000,496.0000000000,273.0000000000,66.0000000000,0.0000000000
1717675137987,412.0000000000,375.0000000000,492.0000000000,271.0000000000,65.0000000000,0.0000000000
1717675137987,408.0000000000,372.0000000000,487.0000000000,270.0000000000,65.0000000000,0.0000000000
1717675137987,405.0000000000,371.0000000000,484.0000000000,268.0000000000,65.0000000000,0.0000000000
1717675137987,402.0000000000,368.0000000000,481.0000000000,265.0000000000,63.0000000000,0.0000000000
1717675137988,399.0000000000,364.0000000000,478.0000000000,263.0000000000,63.0000000000,0.0000000000
1717675137988,396.0000000000,363.0000000000,499.0000000000,263.0000000000,63.0000000000,0.0000000000
1717675137988,391.0000000000,359.0000000000,543.0000000000,260.0000000000,63.0000000000,0.0000000000
1717675138001,390.0000000000,358.0000000000,540.0000000000,259.0000000000,63.0000000000,0.0000000000
1717675138002,455.0000000000,355.0000000000,536.0000000000,257.0000000000,62.0000000000,0.0000000000
1717675138003,531.0000000000,353.0000000000,529.0000000000,255.0000000000,62.0000000000,0.0000000000
1717675138003,525.0000000000,351.0000000000,524.0000000000,254.0000000000,62.0000000000,0.0000000000
1717675138003,519.0000000000,348.0000000000,520.0000000000,252.0000000000,62.0000000000,0.0000000000
1717675138003,515.0000000000,345.0000000000,515.0000000000,251.0000000000,61.0000000000,0.0000000000
1717675138003,510.0000000000,344.0000000000,511.0000000000,248.0000000000,60.0000000000,0.0000000000
1717675138003,515.0000000000,342.0000000000,507.0000000000,248.0000000000,60.0000000000,0.0000000000
1717675138003,622.0000000000,371.0000000000,503.0000000000,246.0000000000,59.0000000000,0.0000000000
1717675138017,615.0000000000,368.0000000000,499.0000000000,244.0000000000,59.0000000000,0.0000000000
1717675138018,608.0000000000,475.0000000000,496.0000000000,243.0000000000,59.0000000000,0.0000000000
1717675138018,601.0000000000,519.0000000000,491.0000000000,241.0000000000,58.0000000000,0.0000000000
1717675138018,595.0000000000,512.0000000000,487.0000000000,240.0000000000,58.0000000000,0.0000000000
1717675138018,589.0000000000,508.0000000000,483.0000000000,238.0000000000,57.0000000000,0.0000000000
1717675138019,583.0000000000,502.0000000000,479.0000000000,236.0000000000,57.0000000000,0.0000000000
1717675138019,577.0000000000,499.0000000000,475.0000000000,235.0000000000,56.0000000000,0.0000000000
1717675138019,572.0000000000,494.0000000000,472.0000000000,233.0000000000,56.0000000000,0.0000000000
1717675138034,566.0000000000,489.0000000000,468.0000000000,231.0000000000,56.0000000000,0.0000000000
1717675138034,560.0000000000,485.0000000000,464.0000000000,231.0000000000,56.0000000000,0.0000000000
1717675138034,556.0000000000,482.0000000000,460.0000000000,229.0000000000,56.0000000000,0.0000000000
1717675138035,550.0000000000,478.0000000000,456.0000000000,227.0000000000,56.0000000000,0.0000000000
1717675138035,544.0000000000,473.0000000000,454.0000000000,226.0000000000,56.0000000000,0.0000000000
1717675138035,540.0000000000,470.0000000000,503.0000000000,224.0000000000,55.0000000000,0.0000000000
1717675138035,536.0000000000,466.0000000000,497.0000000000,224.0000000000,54.0000000000,0.0000000000
1717675138035,531.0000000000,527.0000000000,493.0000000000,222.0000000000,54.0000000000,0.0000000000
1717675138035,526.0000000000,539.0000000000,489.0000000000,220.0000000000,54.0000000000,0.0000000000
1717675138052,521.0000000000,534.0000000000,485.0000000000,219.0000000000,54.0000000000,0.0000000000
1717675138053,516.0000000000,529.0000000000,480.0000000000,217.0000000000,52.0000000000,0.0000000000
1717675138053,512.0000000000,524.0000000000,476.0000000000,216.0000000000,53.0000000000,0.0000000000
1717675138053,508.0000000000,519.0000000000,473.0000000000,215.0000000000,52.0000000000,0.0000000000
1717675138054,504.0000000000,514.0000000000,470.0000000000,214.0000000000,52.0000000000,0.0000000000
1717675138054,499.0000000000,510.0000000000,465.0000000000,212.0000000000,52.0000000000,0.0000000000
1717675138054,495.0000000000,505.0000000000,462.0000000000,211.0000000000,51.0000000000,0.0000000000
1717675138055,491.0000000000,501.0000000000,458.0000000000,248.0000000000,51.0000000000,0.0000000000
1717675138055,487.0000000000,496.0000000000,516.0000000000,246.0000000000,51.0000000000,0.0000000000
1717675138074,482.0000000000,493.0000000000,514.0000000000,244.0000000000,51.0000000000,0.0000000000
1717675138075,479.0000000000,488.0000000000,540.0000000000,243.0000000000,50.0000000000,0.0000000000
1717675138075,475.0000000000,484.0000000000,536.0000000000,241.0000000000,49.0000000000,0.0000000000
1717675138075,603.0000000000,539.0000000000,531.0000000000,240.0000000000,53.0000000000,0.0000000000
1717675138075,681.0000000000,532.0000000000,526.0000000000,238.0000000000,52.0000000000,0.0000000000
1717675138075,673.0000000000,528.0000000000,519.0000000000,236.0000000000,52.0000000000,0.0000000000
1717675138076,665.0000000000,523.0000000000,515.0000000000,235.0000000000,52.0000000000,0.0000000000
1717675138076,657.0000000000,518.0000000000,512.0000000000,231.0000000000,51.0000000000,0.0000000000
1717675138076,651.0000000000,512.0000000000,508.0000000000,231.0000000000,51.0000000000,0.0000000000
1717675138076,643.0000000000,509.0000000000,503.0000000000,230.0000000000,50.0000000000,0.0000000000
1717675138076,636.0000000000,504.0000000000,498.0000000000,228.0000000000,50.0000000000,0.0000000000
1717675138076,630.0000000000,499.0000000000,495.0000000000,227.0000000000,50.0000000000,0.0000000000
1717675138076,624.0000000000,496.0000000000,491.0000000000,225.0000000000,49.0000000000,0.0000000000
1717675138091,616.0000000000,492.0000000000,486.0000000000,224.0000000000,49.0000000000,0.0000000000
1717675138091,611.0000000000,487.0000000000,482.0000000000,223.0000000000,53.0000000000,0.0000000000
1717675138091,604.0000000000,483.0000000000,479.0000000000,220.0000000000,53.0000000000,0.0000000000
1717675138092,598.0000000000,479.0000000000,475.0000000000,220.0000000000,52.0000000000,0.0000000000
1717675138092,593.0000000000,603.0000000000,471.0000000000,218.0000000000,52.0000000000,0.0000000000
1717675138092,587.0000000000,593.0000000000,467.0000000000,216.0000000000,51.0000000000,0.0000000000
1717675138092,581.0000000000,587.0000000000,463.0000000000,215.0000000000,51.0000000000,0.0000000000
1717675138109,575.0000000000,580.0000000000,460.0000000000,214.0000000000,51.0000000000,0.0000000000
1717675138109,570.0000000000,575.0000000000,455.0000000000,212.0000000000,51.0000000000,0.0000000000
1717675138109,565.0000000000,571.0000000000,452.0000000000,211.0000000000,50.0000000000,0.0000000000
1717675138110,560.0000000000,565.0000000000,450.0000000000,210.0000000000,51.0000000000,0.0000000000
1717675138110,555.0000000000,560.0000000000,446.0000000000,207.0000000000,51.0000000000,0.0000000000
1717675138110,550.0000000000,556.0000000000,443.0000000000,207.0000000000,50.0000000000,0.0000000000
1717675138110,545.0000000000,550.0000000000,440.0000000000,206.0000000000,50.0000000000,0.0000000000
1717675138111,540.0000000000,545.0000000000,459.0000000000,204.0000000000,50.0000000000,0.0000000000
1717675138111,536.0000000000,539.0000000000,515.0000000000,204.0000000000,49.0000000000,0.0000000000
1717675138112,531.0000000000,536.0000000000,508.0000000000,202.0000000000,49.0000000000,0.0000000000
1717675138112,542.0000000000,531.0000000000,504.0000000000,201.0000000000,49.0000000000,0.0000000000
1717675138128,536.0000000000,526.0000000000,500.0000000000,199.0000000000,48.0000000000,0.0000000000
1717675138128,531.0000000000,521.0000000000,496.0000000000,199.0000000000,48.0000000000,0.0000000000
1717675138128,527.0000000000,516.0000000000,492.0000000000,198.0000000000,48.0000000000,0.0000000000
1717675138129,522.0000000000,512.0000000000,487.0000000000,196.0000000000,48.0000000000,0.0000000000
1717675138129,518.0000000000,508.0000000000,483.0000000000,195.0000000000,48.0000000000,0.0000000000
1717675138129,513.0000000000,504.0000000000,480.0000000000,193.0000000000,48.0000000000,0.0000000000
1717675138129,509.0000000000,502.0000000000,476.0000000000,193.0000000000,47.0000000000,0.0000000000
1717675138129,504.0000000000,559.0000000000,472.0000000000,192.0000000000,46.0000000000,0.0000000000
1717675138129,500.0000000000,552.0000000000,467.0000000000,191.0000000000,46.0000000000,0.0000000000
1717675138129,496.0000000000,547.0000000000,491.0000000000,190.0000000000,46.0000000000,0.0000000000
1717675138143,492.0000000000,542.0000000000,486.0000000000,188.0000000000,46.0000000000,0.0000000000
1717675138144,487.0000000000,537.0000000000,505.0000000000,188.0000000000,45.0000000000,0.0000000000
1717675138144,484.0000000000,532.0000000000,542.0000000000,186.0000000000,45.0000000000,0.0000000000
1717675138144,480.0000000000,527.0000000000,537.0000000000,185.0000000000,45.0000000000,0.0000000000
1717675138144,476.0000000000,522.0000000000,532.0000000000,184.0000000000,44.0000000000,0.0000000000
1717675138144,472.0000000000,519.0000000000,527.0000000000,183.0000000000,44.0000000000,0.0000000000
1717675138144,470.0000000000,513.0000000000,522.0000000000,182.0000000000,44.0000000000,0.0000000000
1717675138162,465.0000000000,509.0000000000,518.0000000000,180.0000000000,44.0000000000,0.0000000000
1717675138163,462.0000000000,504.0000000000,513.0000000000,179.0000000000,44.0000000000,0.0000000000
1717675138163,458.0000000000,500.0000000000,508.0000000000,179.0000000000,44.0000000000,0.0000000000
1717675138163,455.0000000000,496.0000000000,504.0000000000,177.0000000000,44.0000000000,0.0000000000
1717675138163,451.0000000000,492.0000000000,500.0000000000,177.0000000000,43.0000000000,0.0000000000
1717675138163,448.0000000000,487.0000000000,496.0000000000,176.0000000000,43.0000000000,0.0000000000
1717675138163,444.0000000000,484.0000000000,492.0000000000,175.0000000000,43.0000000000,0.0000000000
1717675138163,441.0000000000,480.0000000000,487.0000000000,174.0000000000,42.0000000000,0.0000000000
1717675138164,438.0000000000,477.0000000000,484.0000000000,173.0000000000,41.0000000000,0.0000000000
1717675138164,435.0000000000,472.0000000000,480.0000000000,172.0000000000,41.0000000000,0.0000000000
1717675138164,432.0000000000,470.0000000000,476.0000000000,171.0000000000,41.0000000000,0.0000000000
1717675138181,428.0000000000,466.0000000000,472.0000000000,169.0000000000,40.0000000000,0.0000000000
1717675138182,423.0000000000,463.0000000000,468.0000000000,169.0000000000,41.0000000000,0.0000000000
1717675138182,422.0000000000,459.0000000000,483.0000000000,167.0000000000,40.0000000000,0.0000000000
1717675138182,419.0000000000,455.0000000000,478.0000000000,167.0000000000,39.0000000000,0.0000000000
1717675138183,441.0000000000,502.0000000000,473.0000000000,166.0000000000,39.0000000000,0.0000000000
1717675138183,456.0000000000,496.0000000000,469.0000000000,234.0000000000,39.0000000000,0.0000000000
1717675138183,452.0000000000,491.0000000000,466.0000000000,263.0000000000,39.0000000000,0.0000000000
1717675138183,448.0000000000,486.0000000000,462.0000000000,261.0000000000,39.0000000000,0.0000000000
1717675138184,444.0000000000,483.0000000000,458.0000000000,259.0000000000,39.0000000000,0.0000000000
1717675138184,440.0000000000,479.0000000000,455.0000000000,257.0000000000,42.0000000000,0.0000000000
1717675138184,436.0000000000,474.0000000000,451.0000000000,255.0000000000,44.0000000000,0.0000000000
1717675138211,432.0000000000,470.0000000000,448.0000000000,254.0000000000,43.0000000000,0.0000000000
1717675138211,430.0000000000,467.0000000000,444.0000000000,252.0000000000,43.0000000000,0.0000000000
1717675138211,425.0000000000,462.0000000000,440.0000000000,249.0000000000,43.0000000000,0.0000000000
1717675138212,422.0000000000,459.0000000000,438.0000000000,248.0000000000,42.0000000000,0.0000000000
1717675138212,419.0000000000,455.0000000000,435.0000000000,247.0000000000,41.0000000000,0.0000000000
1717675138212,415.0000000000,451.0000000000,431.0000000000,245.0000000000,41.0000000000,0.0000000000
1717675138212,412.0000000000,448.0000000000,428.0000000000,243.0000000000,44.0000000000,0.0000000000
1717675138212,408.0000000000,444.0000000000,425.0000000000,241.0000000000,43.0000000000,0.0000000000
1717675138212,406.0000000000,441.0000000000,423.0000000000,240.0000000000,43.0000000000,0.0000000000
1717675138212,403.0000000000,439.0000000000,419.0000000000,238.0000000000,43.0000000000,0.0000000000
1717675138213,400.0000000000,435.0000000000,415.0000000000,237.0000000000,43.0000000000,0.0000000000
1717675138213,398.0000000000,432.0000000000,413.0000000000,235.0000000000,42.0000000000,0.0000000000
1717675138213,395.0000000000,428.0000000000,410.0000000000,233.0000000000,42.0000000000,0.0000000000
1717675138213,391.0000000000,425.0000000000,408.0000000000,231.0000000000,41.0000000000,0.0000000000
1717675138213,389.0000000000,422.0000000000,404.0000000000,231.0000000000,41.0000000000,0.0000000000
1717675138226,387.0000000000,419.0000000000,402.0000000000,229.0000000000,41.0000000000,0.0000000000
1717675138227,384.0000000000,415.0000000000,399.0000000000,227.0000000000,40.0000000000,0.0000000000
1717675138227,382.0000000000,414.0000000000,396.0000000000,226.0000000000,40.0000000000,0.0000000000
1717675138227,379.0000000000,411.0000000000,393.0000000000,225.0000000000,39.0000000000,0.0000000000
1717675138227,376.0000000000,408.0000000000,391.0000000000,224.0000000000,39.0000000000,0.0000000000
1717675138227,374.0000000000,404.0000000000,388.0000000000,222.0000000000,39.0000000000,0.0000000000
1717675138227,371.0000000000,401.0000000000,386.0000000000,220.0000000000,39.0000000000,0.0000000000
1717675138228,368.0000000000,399.0000000000,384.0000000000,219.0000000000,39.0000000000,0.0000000000
1717675138228,366.0000000000,443.0000000000,380.0000000000,217.0000000000,39.0000000000,0.0000000000
1717675138244,364.0000000000,438.0000000000,378.0000000000,216.0000000000,39.0000000000,0.0000000000
1717675138245,361.0000000000,434.0000000000,391.0000000000,215.0000000000,39.0000000000,0.0000000000
1717675138245,359.0000000000,431.0000000000,389.0000000000,214.0000000000,38.0000000000,0.0000000000
1717675138245,356.0000000000,427.0000000000,386.0000000000,211.0000000000,38.0000000000,0.0000000000
1717675138245,354.0000000000,423.0000000000,384.0000000000,211.0000000000,38.0000000000,0.0000000000
1717675138245,352.0000000000,419.0000000000,380.0000000000,209.0000000000,37.0000000000,0.0000000000
1717675138245,350.0000000000,417.0000000000,377.0000000000,207.0000000000,37.0000000000,0.0000000000
1717675138245,348.0000000000,414.0000000000,375.0000000000,207.0000000000,37.0000000000,0.0000000000
1717675138246,345.0000000000,409.0000000000,372.0000000000,206.0000000000,37.0000000000,0.0000000000
1717675138259,344.0000000000,407.0000000000,370.0000000000,204.0000000000,36.0000000000,0.0000000000
1717675138261,340.0000000000,403.0000000000,368.0000000000,203.0000000000,36.0000000000,0.0000000000
1717675138261,339.0000000000,400.0000000000,365.0000000000,201.0000000000,35.0000000000,0.0000000000
1717675138262,336.0000000000,397.0000000000,363.0000000000,199.0000000000,36.0000000000,0.0000000000
1717675138262,334.0000000000,395.0000000000,360.0000000000,199.0000000000,35.0000000000,0.0000000000
1717675138262,332.0000000000,391.0000000000,358.0000000000,198.0000000000,35.0000000000,0.0000000000
1717675138262,331.0000000000,390.0000000000,355.0000000000,197.0000000000,35.0000000000,0.0000000000
1717675138262,327.0000000000,387.0000000000,354.0000000000,195.0000000000,35.0000000000,0.0000000000
1717675138262,326.0000000000,384.0000000000,352.0000000000,195.0000000000,35.0000000000,0.0000000000
1717675138282,324.0000000000,382.0000000000,350.0000000000,193.0000000000,35.0000000000,0.0000000000
1717675138285,322.0000000000,379.0000000000,347.0000000000,192.0000000000,34.0000000000,0.0000000000
1717675138285,319.0000000000,376.0000000000,345.0000000000,192.0000000000,34.0000000000,0.0000000000
1717675138286,319.0000000000,374.0000000000,344.0000000000,190.0000000000,34.0000000000,0.0000000000
1717675138287,316.0000000000,371.0000000000,341.0000000000,188.0000000000,33.0000000000,0.0000000000
1717675138288,314.0000000000,369.0000000000,339.0000000000,188.0000000000,34.0000000000,0.0000000000
1717675138289,312.0000000000,366.0000000000,337.0000000000,187.0000000000,33.0000000000,0.0000000000
1717675138290,311.0000000000,364.0000000000,335.0000000000,185.0000000000,33.0000000000,0.0000000000
1717675138291,308.0000000000,361.0000000000,333.0000000000,184.0000000000,33.0000000000,0.0000000000
1717675138292,307.0000000000,359.0000000000,331.0000000000,184.0000000000,39.0000000000,0.0000000000
1717675138293,305.0000000000,357.0000000000,328.0000000000,182.0000000000,47.0000000000,0.0000000000
1717675138293,303.0000000000,355.0000000000,327.0000000000,181.0000000000,46.0000000000,0.0000000000
1717675138293,301.0000000000,352.0000000000,324.0000000000,179.0000000000,46.0000000000,0.0000000000
1717675138294,300.0000000000,351.0000000000,323.0000000000,179.0000000000,46.0000000000,0.0000000000
1717675138294,297.0000000000,348.0000000000,321.0000000000,178.0000000000,45.0000000000,0.0000000000
1717675138294,295.0000000000,345.0000000000,319.0000000000,176.0000000000,45.0000000000,0.0000000000
1717675138294,294.0000000000,344.0000000000,354.0000000000,176.0000000000,45.0000000000,0.0000000000
1717675138309,364.0000000000,342.0000000000,352.0000000000,175.0000000000,44.0000000000,0.0000000000
1717675138311,360.0000000000,339.0000000000,348.0000000000,174.0000000000,44.0000000000,0.0000000000
1717675138311,358.0000000000,337.0000000000,346.0000000000,172.0000000000,46.0000000000,0.0000000000
1717675138311,355.0000000000,335.0000000000,344.0000000000,172.0000000000,49.0000000000,0.0000000000
1717675138312,352.0000000000,334.0000000000,340.0000000000,171.0000000000,49.0000000000,0.0000000000
1717675138312,349.0000000000,331.0000000000,338.0000000000,169.0000000000,49.0000000000,0.0000000000
1717675138312,347.0000000000,329.0000000000,335.0000000000,230.0000000000,48.0000000000,0.0000000000
1717675138312,344.0000000000,485.0000000000,333.0000000000,227.0000000000,48.0000000000,0.0000000000
1717675138312,340.0000000000,480.0000000000,331.0000000000,225.0000000000,48.0000000000,0.0000000000
1717675138328,339.0000000000,475.0000000000,327.0000000000,224.0000000000,47.0000000000,0.0000000000
1717675138330,335.0000000000,470.0000000000,327.0000000000,223.0000000000,47.0000000000,0.0000000000
1717675138330,334.0000000000,465.0000000000,324.0000000000,221.0000000000,47.0000000000,0.0000000000
1717675138330,331.0000000000,463.0000000000,321.0000000000,220.0000000000,46.0000000000,0.0000000000
1717675138330,327.0000000000,459.0000000000,319.0000000000,217.0000000000,47.0000000000,0.0000000000
1717675138330,326.0000000000,455.0000000000,318.0000000000,216.0000000000,52.0000000000,0.0000000000
1717675138330,323.0000000000,451.0000000000,316.0000000000,215.0000000000,52.0000000000,0.0000000000
1717675138330,321.0000000000,448.0000000000,313.0000000000,214.0000000000,51.0000000000,0.0000000000
1717675138330,319.0000000000,444.0000000000,312.0000000000,212.0000000000,51.0000000000,0.0000000000
1717675138331,316.0000000000,440.0000000000,311.0000000000,211.0000000000,51.0000000000,0.0000000000
1717675138331,314.0000000000,435.0000000000,308.0000000000,209.0000000000,51.0000000000,0.0000000000
1717675138345,312.0000000000,432.0000000000,358.0000000000,207.0000000000,51.0000000000,0.0000000000
1717675138346,310.0000000000,429.0000000000,355.0000000000,207.0000000000,50.0000000000,0.0000000000
1717675138346,307.0000000000,425.0000000000,352.0000000000,205.0000000000,50.0000000000,0.0000000000
1717675138346,305.0000000000,422.0000000000,350.0000000000,204.0000000000,49.0000000000,0.0000000000
1717675138346,304.0000000000,419.0000000000,346.0000000000,203.0000000000,49.0000000000,0.0000000000
1717675138346,302.0000000000,415.0000000000,344.0000000000,201.0000000000,49.0000000000,0.0000000000
1717675138346,300.0000000000,412.0000000000,341.0000000000,199.0000000000,48.0000000000,0.0000000000
1717675138347,297.0000000000,409.0000000000,339.0000000000,199.0000000000,48.0000000000,0.0000000000
1717675138361,295.0000000000,406.0000000000,335.0000000000,197.0000000000,48.0000000000,0.0000000000
1717675138362,294.0000000000,403.0000000000,334.0000000000,195.0000000000,47.0000000000,0.0000000000
1717675138362,291.0000000000,400.0000000000,332.0000000000,195.0000000000,47.0000000000,0.0000000000
1717675138362,289.0000000000,397.0000000000,329.0000000000,193.0000000000,47.0000000000,0.0000000000
1717675138362,287.0000000000,394.0000000000,327.0000000000,192.0000000000,46.0000000000,0.0000000000
1717675138362,287.0000000000,391.0000000000,324.0000000000,191.0000000000,46.0000000000,0.0000000000
1717675138362,285.0000000000,389.0000000000,379.0000000000,190.0000000000,46.0000000000,0.0000000000
1717675138377,283.0000000000,385.0000000000,376.0000000000,188.0000000000,46.0000000000,0.0000000000
1717675138378,281.0000000000,384.0000000000,372.0000000000,188.0000000000,46.0000000000,0.0000000000
1717675138378,280.0000000000,380.0000000000,369.0000000000,186.0000000000,44.0000000000,0.0000000000
1717675138378,278.0000000000,377.0000000000,366.0000000000,185.0000000000,44.0000000000,0.0000000000
1717675138378,276.0000000000,376.0000000000,364.0000000000,184.0000000000,44.0000000000,0.0000000000
1717675138378,275.0000000000,372.0000000000,420.0000000000,183.0000000000,44.0000000000,0.0000000000
1717675138378,273.0000000000,371.0000000000,420.0000000000,182.0000000000,44.0000000000,0.0000000000
1717675138379,271.0000000000,368.0000000000,460.0000000000,180.0000000000,43.0000000000,0.0000000000
1717675138379,319.0000000000,365.0000000000,471.0000000000,179.0000000000,43.0000000000,0.0000000000
1717675138401,318.0000000000,363.0000000000,465.0000000000,179.0000000000,43.0000000000,0.0000000000
1717675138402,315.0000000000,359.0000000000,462.0000000000,177.0000000000,44.0000000000,0.0000000000
1717675138402,312.0000000000,358.0000000000,457.0000000000,176.0000000000,47.0000000000,0.0000000000
1717675138402,310.0000000000,355.0000000000,453.0000000000,175.0000000000,46.0000000000,0.0000000000
1717675138402,307.0000000000,352.0000000000,451.0000000000,174.0000000000,46.0000000000,0.0000000000
1717675138403,305.0000000000,350.0000000000,446.0000000000,173.0000000000,46.0000000000,0.0000000000
1717675138403,303.0000000000,348.0000000000,442.0000000000,172.0000000000,45.0000000000,0.0000000000
1717675138403,300.0000000000,345.0000000000,439.0000000000,171.0000000000,44.0000000000,0.0000000000
1717675138403,299.0000000000,344.0000000000,435.0000000000,169.0000000000,44.0000000000,0.0000000000
1717675138404,295.0000000000,340.0000000000,432.0000000000,168.0000000000,44.0000000000,0.0000000000
1717675138404,295.0000000000,339.0000000000,428.0000000000,167.0000000000,44.0000000000,0.0000000000
1717675138404,292.0000000000,336.0000000000,424.0000000000,167.0000000000,44.0000000000,0.0000000000
1717675138404,290.0000000000,334.0000000000,423.0000000000,166.0000000000,44.0000000000,0.0000000000
1717675138405,287.0000000000,332.0000000000,419.0000000000,165.0000000000,43.0000000000,0.0000000000
1717675138405,286.0000000000,331.0000000000,415.0000000000,164.0000000000,43.0000000000,0.0000000000
1717675138437,284.0000000000,327.0000000000,412.0000000000,163.0000000000,43.0000000000,0.0000000000
1717675138440,281.0000000000,326.0000000000,409.0000000000,162.0000000000,43.0000000000,0.0000000000
1717675138440,280.0000000000,363.0000000000,407.0000000000,161.0000000000,42.0000000000,0.0000000000
1717675138440,279.0000000000,359.0000000000,403.0000000000,159.0000000000,41.0000000000,0.0000000000
1717675138441,276.0000000000,358.0000000000,399.0000000000,159.0000000000,41.0000000000,0.0000000000
1717675138441,275.0000000000,354.0000000000,398.0000000000,159.0000000000,40.0000000000,0.0000000000
1717675138441,273.0000000000,351.0000000000,395.0000000000,157.0000000000,41.0000000000,0.0000000000
1717675138441,271.0000000000,349.0000000000,391.0000000000,157.0000000000,40.0000000000,0.0000000000
1717675138441,270.0000000000,347.0000000000,417.0000000000,156.0000000000,40.0000000000,0.0000000000
1717675138442,268.0000000000,344.0000000000,415.0000000000,155.0000000000,39.0000000000,0.0000000000
1717675138442,267.0000000000,340.0000000000,412.0000000000,153.0000000000,39.0000000000,0.0000000000
1717675138442,264.0000000000,339.0000000000,408.0000000000,153.0000000000,39.0000000000,0.0000000000
1717675138442,263.0000000000,335.0000000000,403.0000000000,152.0000000000,39.0000000000,0.0000000000
1717675138442,262.0000000000,334.0000000000,401.0000000000,152.0000000000,39.0000000000,0.0000000000
1717675138443,260.0000000000,331.0000000000,398.0000000000,152.0000000000,39.0000000000,0.0000000000
1717675138443,259.0000000000,327.0000000000,395.0000000000,151.0000000000,39.0000000000,0.0000000000
1717675138443,257.0000000000,327.0000000000,391.0000000000,150.0000000000,39.0000000000,0.0000000000
1717675138444,255.0000000000,323.0000000000,388.0000000000,148.0000000000,38.0000000000,0.0000000000
1717675138445,255.0000000000,322.0000000000,387.0000000000,193.0000000000,41.0000000000,0.0000000000
1717675138445,253.0000000000,319.0000000000,384.0000000000,192.0000000000,41.0000000000,0.0000000000
1717675138445,252.0000000000,318.0000000000,380.0000000000,191.0000000000,41.0000000000,0.0000000000
1717675138445,250.0000000000,316.0000000000,377.0000000000,189.0000000000,41.0000000000,0.0000000000
1717675138464,248.0000000000,315.0000000000,376.0000000000,188.0000000000,41.0000000000,0.0000000000
1717675138465,248.0000000000,312.0000000000,372.0000000000,185.0000000000,40.0000000000,0.0000000000
1717675138465,246.0000000000,311.0000000000,370.0000000000,185.0000000000,39.0000000000,0.0000000000
1717675138466,244.0000000000,308.0000000000,368.0000000000,184.0000000000,39.0000000000,0.0000000000
1717675138466,243.0000000000,348.0000000000,366.0000000000,183.0000000000,39.0000000000,0.0000000000
1717675138466,242.0000000000,423.0000000000,363.0000000000,181.0000000000,39.0000000000,0.0000000000
1717675138466,241.0000000000,420.0000000000,359.0000000000,180.0000000000,39.0000000000,0.0000000000
1717675138466,240.0000000000,415.0000000000,358.0000000000,188.0000000000,39.0000000000,0.0000000000
1717675138466,238.0000000000,412.0000000000,356.0000000000,187.0000000000,39.0000000000,0.0000000000
1717675138467,315.0000000000,417.0000000000,353.0000000000,185.0000000000,39.0000000000,0.0000000000
1717675138467,312.0000000000,415.0000000000,351.0000000000,184.0000000000,38.0000000000,0.0000000000
1717675138488,309.0000000000,411.0000000000,348.0000000000,183.0000000000,38.0000000000,0.0000000000
1717675138489,307.0000000000,408.0000000000,347.0000000000,181.0000000000,37.0000000000,0.0000000000
1717675138489,304.0000000000,403.0000000000,358.0000000000,179.0000000000,37.0000000000,0.0000000000
1717675138489,302.0000000000,401.0000000000,355.0000000000,179.0000000000,37.0000000000,0.0000000000
1717675138490,299.0000000000,398.0000000000,352.0000000000,178.0000000000,37.0000000000,0.0000000000
1717675138490,297.0000000000,395.0000000000,350.0000000000,176.0000000000,36.0000000000,0.0000000000
1717675138490,295.0000000000,391.0000000000,348.0000000000,176.0000000000,36.0000000000,0.0000000000
1717675138490,292.0000000000,389.0000000000,344.0000000000,174.0000000000,36.0000000000,0.0000000000
1717675138491,291.0000000000,385.0000000000,342.0000000000,174.0000000000,36.0000000000,0.0000000000
1717675138491,287.0000000000,383.0000000000,340.0000000000,172.0000000000,35.0000000000,0.0000000000
1717675138491,287.0000000000,380.0000000000,337.0000000000,171.0000000000,35.0000000000,0.0000000000
1717675138492,284.0000000000,376.0000000000,335.0000000000,171.0000000000,35.0000000000,0.0000000000
1717675138492,283.0000000000,375.0000000000,359.0000000000,169.0000000000,35.0000000000,0.0000000000
1717675138509,280.0000000000,371.0000000000,357.0000000000,167.0000000000,35.0000000000,0.0000000000
1717675138511,279.0000000000,368.0000000000,355.0000000000,167.0000000000,35.0000000000,0.0000000000
1717675138512,276.0000000000,366.0000000000,352.0000000000,166.0000000000,35.0000000000,0.0000000000
1717675138513,275.0000000000,364.0000000000,349.0000000000,164.0000000000,34.0000000000,0.0000000000
1717675138515,273.0000000000,360.0000000000,346.0000000000,163.0000000000,34.0000000000,0.0000000000
1717675138515,271.0000000000,358.0000000000,344.0000000000,162.0000000000,34.0000000000,0.0000000000
1717675138534,269.0000000000,355.0000000000,342.0000000000,161.0000000000,35.0000000000,0.0000000000
1717675138534,268.0000000000,353.0000000000,339.0000000000,160.0000000000,35.0000000000,0.0000000000
1717675138534,265.0000000000,351.0000000000,336.0000000000,159.0000000000,34.0000000000,0.0000000000
1717675138534,263.0000000000,348.0000000000,335.0000000000,158.0000000000,34.0000000000,0.0000000000
1717675138534,262.0000000000,345.0000000000,332.0000000000,157.0000000000,34.0000000000,0.0000000000
1717675138535,260.0000000000,344.0000000000,329.0000000000,156.0000000000,33.0000000000,0.0000000000
1717675138535,259.0000000000,340.0000000000,327.0000000000,156.0000000000,33.0000000000,0.0000000000
1717675138535,255.0000000000,339.0000000000,326.0000000000,155.0000000000,33.0000000000,0.0000000000
1717675138535,255.0000000000,335.0000000000,323.0000000000,153.0000000000,33.0000000000,0.0000000000
1717675138536,391.0000000000,335.0000000000,321.0000000000,153.0000000000,51.0000000000,0.0000000000
1717675138536,403.0000000000,332.0000000000,319.0000000000,152.0000000000,51.0000000000,0.0000000000
1717675138536,399.0000000000,329.0000000000,359.0000000000,151.0000000000,51.0000000000,0.0000000000
1717675138537,395.0000000000,327.0000000000,467.0000000000,150.0000000000,51.0000000000,0.0000000000
1717675138537,391.0000000000,326.0000000000,462.0000000000,150.0000000000,50.0000000000,0.0000000000
1717675138537,387.0000000000,323.0000000000,457.0000000000,148.0000000000,50.0000000000,0.0000000000
1717675138537,384.0000000000,320.0000000000,455.0000000000,147.0000000000,49.0000000000,0.0000000000
1717675138538,382.0000000000,319.0000000000,450.0000000000,147.0000000000,49.0000000000,0.0000000000
1717675138538,379.0000000000,317.0000000000,446.0000000000,146.0000000000,49.0000000000,0.0000000000
1717675138587,376.0000000000,315.0000000000,443.0000000000,145.0000000000,49.0000000000,0.0000000000
1717675138590,372.0000000000,312.0000000000,440.0000000000,144.0000000000,48.0000000000,0.0000000000
1717675138590,369.0000000000,311.0000000000,435.0000000000,143.0000000000,48.0000000000,0.0000000000
1717675138591,368.0000000000,308.0000000000,448.0000000000,143.0000000000,56.0000000000,0.0000000000
1717675138591,364.0000000000,307.0000000000,443.0000000000,142.0000000000,56.0000000000,0.0000000000
1717675138592,361.0000000000,305.0000000000,439.0000000000,142.0000000000,55.0000000000,0.0000000000
1717675138592,358.0000000000,303.0000000000,435.0000000000,140.0000000000,55.0000000000,0.0000000000
1717675138594,355.0000000000,301.0000000000,432.0000000000,140.0000000000,55.0000000000,0.0000000000
1717675138594,353.0000000000,300.0000000000,428.0000000000,139.0000000000,54.0000000000,0.0000000000
1717675138594,351.0000000000,297.0000000000,423.0000000000,176.0000000000,54.0000000000,0.0000000000
1717675138595,348.0000000000,295.0000000000,422.0000000000,174.0000000000,54.0000000000,0.0000000000
1717675138595,345.0000000000,294.0000000000,419.0000000000,173.0000000000,53.0000000000,0.0000000000
1717675138595,343.0000000000,292.0000000000,415.0000000000,172.0000000000,52.0000000000,0.0000000000
1717675138595,340.0000000000,290.0000000000,412.0000000000,171.0000000000,52.0000000000,0.0000000000
1717675138595,338.0000000000,288.0000000000,409.0000000000,169.0000000000,52.0000000000,0.0000000000
1717675138596,335.0000000000,287.0000000000,406.0000000000,167.0000000000,51.0000000000,0.0000000000
1717675138596,333.0000000000,286.0000000000,403.0000000000,167.0000000000,51.0000000000,0.0000000000
1717675138596,331.0000000000,284.0000000000,399.0000000000,166.0000000000,51.0000000000,0.0000000000
1717675138596,327.0000000000,282.0000000000,397.0000000000,164.0000000000,51.0000000000,0.0000000000
1717675138596,326.0000000000,280.0000000000,394.0000000000,163.0000000000,51.0000000000,0.0000000000
1717675138596,323.0000000000,279.0000000000,391.0000000000,162.0000000000,49.0000000000,0.0000000000
1717675138597,321.0000000000,278.0000000000,388.0000000000,161.0000000000,50.0000000000,0.0000000000
1717675138597,319.0000000000,338.0000000000,387.0000000000,159.0000000000,49.0000000000,0.0000000000
1717675138597,318.0000000000,353.0000000000,384.0000000000,159.0000000000,49.0000000000,0.0000000000
1717675138597,315.0000000000,352.0000000000,380.0000000000,158.0000000000,78.0000000000,0.0000000000
1717675138597,312.0000000000,348.0000000000,377.0000000000,158.0000000000,77.0000000000,0.0000000000
1717675138597,311.0000000000,345.0000000000,376.0000000000,156.0000000000,76.0000000000,0.0000000000
1717675138598,309.0000000000,343.0000000000,372.0000000000,155.0000000000,76.0000000000,0.0000000000
1717675138598,307.0000000000,340.0000000000,369.0000000000,155.0000000000,76.0000000000,0.0000000000
1717675138598,304.0000000000,337.0000000000,367.0000000000,153.0000000000,75.0000000000,0.0000000000
1717675138598,419.0000000000,335.0000000000,365.0000000000,186.0000000000,74.0000000000,0.0000000000
1717675138598,419.0000000000,332.0000000000,363.0000000000,222.0000000000,73.0000000000,0.0000000000
1717675138599,415.0000000000,353.0000000000,359.0000000000,220.0000000000,73.0000000000,0.0000000000
1717675138627,412.0000000000,397.0000000000,357.0000000000,219.0000000000,71.0000000000,0.0000000000
1717675138630,408.0000000000,393.0000000000,355.0000000000,217.0000000000,71.0000000000,0.0000000000
1717675138631,404.0000000000,390.0000000000,353.0000000000,215.0000000000,71.0000000000,0.0000000000
1717675138632,401.0000000000,424.0000000000,351.0000000000,213.0000000000,71.0000000000,0.0000000000
1717675138632,398.0000000000,441.0000000000,348.0000000000,211.0000000000,71.0000000000,0.0000000000
1717675138633,395.0000000000,436.0000000000,345.0000000000,211.0000000000,70.0000000000,0.0000000000
1717675138633,391.0000000000,432.0000000000,344.0000000000,209.0000000000,70.0000000000,0.0000000000
1717675138634,388.0000000000,428.0000000000,342.0000000000,207.0000000000,70.0000000000,0.0000000000
1717675138634,385.0000000000,425.0000000000,339.0000000000,206.0000000000,69.0000000000,0.0000000000
1717675138635,382.0000000000,422.0000000000,337.0000000000,205.0000000000,68.0000000000,0.0000000000
1717675138636,379.0000000000,418.0000000000,335.0000000000,204.0000000000,68.0000000000,0.0000000000
1717675138636,376.0000000000,415.0000000000,377.0000000000,203.0000000000,67.0000000000,0.0000000000
1717675138637,374.0000000000,412.0000000000,375.0000000000,201.0000000000,67.0000000000,0.0000000000
1717675138638,371.0000000000,408.0000000000,371.0000000000,199.0000000000,67.0000000000,0.0000000000
1717675138638,368.0000000000,404.0000000000,368.0000000000,199.0000000000,66.0000000000,0.0000000000
1717675138640,365.0000000000,401.0000000000,366.0000000000,196.0000000000,65.0000000000,0.0000000000
1717675138640,363.0000000000,399.0000000000,363.0000000000,195.0000000000,65.0000000000,0.0000000000
1717675138641,359.0000000000,396.0000000000,359.0000000000,195.0000000000,65.0000000000,0.0000000000
1717675138643,357.0000000000,391.0000000000,358.0000000000,193.0000000000,64.0000000000,0.0000000000
1717675138643,354.0000000000,390.0000000000,355.0000000000,192.0000000000,64.0000000000,0.0000000000
1717675138644,352.0000000000,387.0000000000,415.0000000000,192.0000000000,63.0000000000,0.0000000000
1717675138644,349.0000000000,384.0000000000,411.0000000000,190.0000000000,63.0000000000,0.0000000000
1717675138645,347.0000000000,381.0000000000,408.0000000000,188.0000000000,63.0000000000,0.0000000000
1717675138645,344.0000000000,377.0000000000,404.0000000000,187.0000000000,63.0000000000,0.0000000000
1717675138645,342.0000000000,376.0000000000,401.0000000000,187.0000000000,62.0000000000,0.0000000000
1717675138646,339.0000000000,372.0000000000,398.0000000000,185.0000000000,62.0000000000,0.0000000000
1717675138676,337.0000000000,370.0000000000,395.0000000000,184.0000000000,62.0000000000,0.0000000000
1717675138677,335.0000000000,367.0000000000,391.0000000000,182.0000000000,61.0000000000,0.0000000000
1717675138677,332.0000000000,364.0000000000,388.0000000000,182.0000000000,61.0000000000,0.0000000000
1717675138678,330.0000000000,363.0000000000,385.0000000000,180.0000000000,60.0000000000,0.0000000000
1717675138678,327.0000000000,359.0000000000,383.0000000000,179.0000000000,60.0000000000,0.0000000000
1717675138678,372.0000000000,356.0000000000,380.0000000000,178.0000000000,60.0000000000,0.0000000000
1717675138678,369.0000000000,354.0000000000,377.0000000000,177.0000000000,59.0000000000,0.0000000000
1717675138678,366.0000000000,352.0000000000,375.0000000000,176.0000000000,59.0000000000,0.0000000000
1717675138679,364.0000000000,387.0000000000,371.0000000000,175.0000000000,58.0000000000,0.0000000000
1717675138679,359.0000000000,383.0000000000,369.0000000000,174.0000000000,58.0000000000,0.0000000000
1717675138679,358.0000000000,380.0000000000,420.0000000000,173.0000000000,57.0000000000,0.0000000000
1717675138679,355.0000000000,377.0000000000,470.0000000000,172.0000000000,57.0000000000,0.0000000000
1717675138679,352.0000000000,374.0000000000,464.0000000000,171.0000000000,57.0000000000,0.0000000000
1717675138680,349.0000000000,371.0000000000,461.0000000000,169.0000000000,56.0000000000,0.0000000000
1717675138680,347.0000000000,368.0000000000,457.0000000000,167.0000000000,56.0000000000,0.0000000000
1717675138680,348.0000000000,365.0000000000,453.0000000000,167.0000000000,56.0000000000,0.0000000000
1717675138680,344.0000000000,363.0000000000,449.0000000000,166.0000000000,56.0000000000,0.0000000000
1717675138680,342.0000000000,359.0000000000,446.0000000000,165.0000000000,55.0000000000,0.0000000000
1717675138712,339.0000000000,356.0000000000,443.0000000000,164.0000000000,55.0000000000,0.0000000000
1717675138713,337.0000000000,355.0000000000,439.0000000000,163.0000000000,54.0000000000,0.0000000000
1717675138713,334.0000000000,352.0000000000,435.0000000000,162.0000000000,55.0000000000,0.0000000000
1717675138714,332.0000000000,350.0000000000,440.0000000000,161.0000000000,54.0000000000,0.0000000000
1717675138714,329.0000000000,347.0000000000,436.0000000000,160.0000000000,54.0000000000,0.0000000000
1717675138714,327.0000000000,344.0000000000,432.0000000000,159.0000000000,53.0000000000,0.0000000000
1717675138714,325.0000000000,342.0000000000,429.0000000000,158.0000000000,53.0000000000,0.0000000000
1717675138714,323.0000000000,339.0000000000,426.0000000000,158.0000000000,52.0000000000,0.0000000000
1717675138714,319.0000000000,337.0000000000,423.0000000000,156.0000000000,52.0000000000,0.0000000000
1717675138715,319.0000000000,335.0000000000,419.0000000000,156.0000000000,52.0000000000,0.0000000000
1717675138715,316.0000000000,384.0000000000,415.0000000000,155.0000000000,52.0000000000,0.0000000000
1717675138715,313.0000000000,380.0000000000,414.0000000000,154.0000000000,51.0000000000,0.0000000000
1717675138715,312.0000000000,377.0000000000,411.0000000000,153.0000000000,51.0000000000,0.0000000000
1717675138715,371.0000000000,431.0000000000,408.0000000000,152.0000000000,51.0000000000,0.0000000000
1717675138716,393.0000000000,428.0000000000,403.0000000000,152.0000000000,51.0000000000,0.0000000000
1717675138716,390.0000000000,423.0000000000,399.0000000000,150.0000000000,50.0000000000,0.0000000000
1717675138716,386.0000000000,419.0000000000,398.0000000000,150.0000000000,50.0000000000,0.0000000000
1717675138716,384.0000000000,415.0000000000,395.0000000000,148.0000000000,49.0000000000,0.0000000000
1717675138717,380.0000000000,413.0000000000,391.0000000000,147.0000000000,49.0000000000,0.0000000000
1717675138739,377.0000000000,409.0000000000,390.0000000000,147.0000000000,49.0000000000,0.0000000000
1717675138742,375.0000000000,407.0000000000,387.0000000000,195.0000000000,49.0000000000,0.0000000000
1717675138742,371.0000000000,403.0000000000,384.0000000000,192.0000000000,50.0000000000,0.0000000000
1717675138743,368.0000000000,440.0000000000,459.0000000000,192.0000000000,49.0000000000,0.0000000000
1717675138743,365.0000000000,433.0000000000,454.0000000000,190.0000000000,49.0000000000,0.0000000000
1717675138743,363.0000000000,430.0000000000,450.0000000000,188.0000000000,49.0000000000,0.0000000000
1717675138744,359.0000000000,425.0000000000,446.0000000000,188.0000000000,48.0000000000,0.0000000000
1717675138744,356.0000000000,423.0000000000,442.0000000000,186.0000000000,48.0000000000,0.0000000000
1717675138744,354.0000000000,419.0000000000,439.0000000000,184.0000000000,48.0000000000,0.0000000000
1717675138744,352.0000000000,415.0000000000,435.0000000000,184.0000000000,48.0000000000,0.0000000000
1717675138744,349.0000000000,412.0000000000,432.0000000000,182.0000000000,47.0000000000,0.0000000000
1717675138745,347.0000000000,409.0000000000,428.0000000000,180.0000000000,48.0000000000,0.0000000000
1717675138745,344.0000000000,406.0000000000,423.0000000000,180.0000000000,47.0000000000,0.0000000000
1717675138745,342.0000000000,402.0000000000,422.0000000000,179.0000000000,47.0000000000,0.0000000000
1717675138746,339.0000000000,399.0000000000,419.0000000000,177.0000000000,46.0000000000,0.0000000000
1717675138746,336.0000000000,396.0000000000,415.0000000000,176.0000000000,46.0000000000,0.0000000000
1717675138766,334.0000000000,393.0000000000,412.0000000000,231.0000000000,46.0000000000,0.0000000000
1717675138768,332.0000000000,390.0000000000,409.0000000000,228.0000000000,46.0000000000,0.0000000000
1717675138768,329.0000000000,387.0000000000,406.0000000000,227.0000000000,45.0000000000,0.0000000000
1717675138768,327.0000000000,384.0000000000,403.0000000000,225.0000000000,45.0000000000,0.0000000000
1717675138769,324.0000000000,382.0000000000,399.0000000000,223.0000000000,44.0000000000,0.0000000000
1717675138769,322.0000000000,379.0000000000,396.0000000000,222.0000000000,45.0000000000,0.0000000000
1717675138769,319.0000000000,376.0000000000,393.0000000000,220.0000000000,44.0000000000,0.0000000000
1717675138769,318.0000000000,372.0000000000,391.0000000000,218.0000000000,44.0000000000,0.0000000000
1717675138770,316.0000000000,371.0000000000,387.0000000000,217.0000000000,44.0000000000,0.0000000000
1717675138770,313.0000000000,368.0000000000,385.0000000000,216.0000000000,44.0000000000,0.0000000000
1717675138771,312.0000000000,425.0000000000,384.0000000000,214.0000000000,43.0000000000,0.0000000000
1717675138771,310.0000000000,431.0000000000,448.0000000000,212.0000000000,43.0000000000,0.0000000000
1717675138772,307.0000000000,427.0000000000,472.0000000000,211.0000000000,42.0000000000,0.0000000000
1717675138795,306.0000000000,423.0000000000,467.0000000000,210.0000000000,43.0000000000,0.0000000000
1717675138796,304.0000000000,419.0000000000,463.0000000000,208.0000000000,42.0000000000,0.0000000000
1717675138796,302.0000000000,415.0000000000,460.0000000000,207.0000000000,41.0000000000,0.0000000000
1717675138797,300.0000000000,413.0000000000,519.0000000000,206.0000000000,41.0000000000,0.0000000000
1717675138797,297.0000000000,409.0000000000,560.0000000000,235.0000000000,41.0000000000,0.0000000000
1717675138797,295.0000000000,406.0000000000,556.0000000000,231.0000000000,41.0000000000,0.0000000000
1717675138798,294.0000000000,402.0000000000,600.0000000000,231.0000000000,46.0000000000,0.0000000000
1717675138798,292.0000000000,399.0000000000,600.0000000000,229.0000000000,46.0000000000,0.0000000000
1717675138798,291.0000000000,396.0000000000,627.0000000000,227.0000000000,46.0000000000,0.0000000000
1717675138798,288.0000000000,393.0000000000,622.0000000000,225.0000000000,45.0000000000,0.0000000000
1717675138798,287.0000000000,390.0000000000,615.0000000000,224.0000000000,44.0000000000,0.0000000000
1717675138798,358.0000000000,387.0000000000,608.0000000000,222.0000000000,44.0000000000,0.0000000000
1717675138799,354.0000000000,384.0000000000,603.0000000000,220.0000000000,44.0000000000,0.0000000000
1717675138799,351.0000000000,382.0000000000,597.0000000000,219.0000000000,44.0000000000,0.0000000000
1717675138799,348.0000000000,379.0000000000,591.0000000000,217.0000000000,44.0000000000,0.0000000000
1717675138819,345.0000000000,376.0000000000,585.0000000000,216.0000000000,44.0000000000,0.0000000000
1717675138820,343.0000000000,374.0000000000,580.0000000000,215.0000000000,71.0000000000,0.0000000000
1717675138820,339.0000000000,371.0000000000,575.0000000000,214.0000000000,71.0000000000,0.0000000000
1717675138820,337.0000000000,368.0000000000,570.0000000000,212.0000000000,70.0000000000,0.0000000000
1717675138820,335.0000000000,365.0000000000,564.0000000000,211.0000000000,70.0000000000,0.0000000000
1717675138820,332.0000000000,363.0000000000,559.0000000000,209.0000000000,70.0000000000,0.0000000000
1717675138820,329.0000000000,359.0000000000,554.0000000000,207.0000000000,68.0000000000,0.0000000000
1717675138820,327.0000000000,406.0000000000,550.0000000000,206.0000000000,68.0000000000,0.0000000000
1717675138821,324.0000000000,401.0000000000,566.0000000000,204.0000000000,67.0000000000,0.0000000000
1717675138821,322.0000000000,399.0000000000,560.0000000000,204.0000000000,67.0000000000,0.0000000000
1717675138821,319.0000000000,396.0000000000,555.0000000000,202.0000000000,67.0000000000,0.0000000000
1717675138844,318.0000000000,391.0000000000,551.0000000000,201.0000000000,67.0000000000,0.0000000000
1717675138845,315.0000000000,388.0000000000,545.0000000000,199.0000000000,65.0000000000,0.0000000000
1717675138845,313.0000000000,385.0000000000,540.0000000000,199.0000000000,65.0000000000,0.0000000000
1717675138845,312.0000000000,384.0000000000,536.0000000000,198.0000000000,65.0000000000,0.0000000000
1717675138845,308.0000000000,380.0000000000,531.0000000000,195.0000000000,65.0000000000,0.0000000000
1717675138846,307.0000000000,376.0000000000,527.0000000000,195.0000000000,64.0000000000,0.0000000000
1717675138846,304.0000000000,374.0000000000,523.0000000000,193.0000000000,63.0000000000,0.0000000000
1717675138846,302.0000000000,371.0000000000,518.0000000000,192.0000000000,63.0000000000,0.0000000000
1717675138846,300.0000000000,368.0000000000,515.0000000000,192.0000000000,63.0000000000,0.0000000000
1717675138846,297.0000000000,366.0000000000,510.0000000000,190.0000000000,63.0000000000,0.0000000000
1717675138847,295.0000000000,363.0000000000,505.0000000000,189.0000000000,62.0000000000,0.0000000000
1717675138847,294.0000000000,359.0000000000,502.0000000000,188.0000000000,62.0000000000,0.0000000000
1717675138847,291.0000000000,358.0000000000,498.0000000000,187.0000000000,62.0000000000,0.0000000000
1717675138847,289.0000000000,355.0000000000,494.0000000000,185.0000000000,61.0000000000,0.0000000000
1717675138847,287.0000000000,353.0000000000,490.0000000000,184.0000000000,60.0000000000,0.0000000000
1717675138867,286.0000000000,351.0000000000,486.0000000000,183.0000000000,60.0000000000,0.0000000000
1717675138868,284.0000000000,348.0000000000,483.0000000000,182.0000000000,60.0000000000,0.0000000000
1717675138868,283.0000000000,345.0000000000,479.0000000000,180.0000000000,60.0000000000,0.0000000000
1717675138869,280.0000000000,344.0000000000,475.0000000000,179.0000000000,59.0000000000,0.0000000000
1717675138869,278.0000000000,340.0000000000,487.0000000000,179.0000000000,58.0000000000,0.0000000000
1717675138869,276.0000000000,338.0000000000,483.0000000000,177.0000000000,58.0000000000,0.0000000000
1717675138870,275.0000000000,335.0000000000,479.0000000000,176.0000000000,58.0000000000,0.0000000000
1717675138870,273.0000000000,334.0000000000,474.0000000000,175.0000000000,58.0000000000,0.0000000000
1717675138870,271.0000000000,332.0000000000,470.0000000000,175.0000000000,57.0000000000,0.0000000000
1717675138870,270.0000000000,329.0000000000,467.0000000000,174.0000000000,57.0000000000,0.0000000000
1717675138870,268.0000000000,327.0000000000,463.0000000000,172.0000000000,56.0000000000,0.0000000000
1717675138871,267.0000000000,325.0000000000,460.0000000000,171.0000000000,56.0000000000,0.0000000000
1717675138871,265.0000000000,323.0000000000,455.0000000000,170.0000000000,56.0000000000,0.0000000000
1717675138871,263.0000000000,321.0000000000,452.0000000000,169.0000000000,56.0000000000,0.0000000000
1717675138898,262.0000000000,319.0000000000,450.0000000000,169.0000000000,56.0000000000,0.0000000000
1717675138900,260.0000000000,399.0000000000,447.0000000000,167.0000000000,55.0000000000,0.0000000000
1717675138901,259.0000000000,396.0000000000,444.0000000000,167.0000000000,55.0000000000,0.0000000000
1717675138901,257.0000000000,391.0000000000,440.0000000000,166.0000000000,55.0000000000,0.0000000000
1717675138902,255.0000000000,388.0000000000,438.0000000000,165.0000000000,54.0000000000,0.0000000000
1717675138902,254.0000000000,385.0000000000,433.0000000000,163.0000000000,54.0000000000,0.0000000000
1717675138903,252.0000000000,384.0000000000,482.0000000000,163.0000000000,54.0000000000,0.0000000000
1717675138903,251.0000000000,380.0000000000,478.0000000000,163.0000000000,53.0000000000,0.0000000000
1717675138904,249.0000000000,376.0000000000,473.0000000000,161.0000000000,52.0000000000,0.0000000000
1717675138904,248.0000000000,374.0000000000,470.0000000000,161.0000000000,52.0000000000,0.0000000000
1717675138904,247.0000000000,371.0000000000,465.0000000000,164.0000000000,51.0000000000,0.0000000000
1717675138905,244.0000000000,368.0000000000,462.0000000000,163.0000000000,51.0000000000,0.0000000000
1717675138905,243.0000000000,365.0000000000,457.0000000000,161.0000000000,51.0000000000,0.0000000000
1717675138906,242.0000000000,363.0000000000,455.0000000000,161.0000000000,51.0000000000,0.0000000000
1717675138907,316.0000000000,359.0000000000,450.0000000000,159.0000000000,51.0000000000,0.0000000000
1717675138907,313.0000000000,362.0000000000,447.0000000000,159.0000000000,105.0000000000,0.0000000000
1717675138907,311.0000000000,359.0000000000,443.0000000000,158.0000000000,103.0000000000,0.0000000000
1717675138908,308.0000000000,356.0000000000,499.0000000000,156.0000000000,103.0000000000,0.0000000000
1717675138909,305.0000000000,353.0000000000,495.0000000000,156.0000000000,102.0000000000,0.0000000000
1717675138938,303.0000000000,350.0000000000,489.0000000000,155.0000000000,102.0000000000,0.0000000000
1717675138940,300.0000000000,348.0000000000,486.0000000000,153.0000000000,101.0000000000,0.0000000000
1717675138940,298.0000000000,344.0000000000,481.0000000000,153.0000000000,100.0000000000,0.0000000000
1717675138940,295.0000000000,343.0000000000,476.0000000000,152.0000000000,99.0000000000,0.0000000000
1717675138941,294.0000000000,340.0000000000,472.0000000000,152.0000000000,99.0000000000,0.0000000000
1717675138941,291.0000000000,337.0000000000,468.0000000000,150.0000000000,97.0000000000,0.0000000000
1717675138941,289.0000000000,335.0000000000,465.0000000000,149.0000000000,97.0000000000,0.0000000000
1717675138941,287.0000000000,333.0000000000,461.0000000000,148.0000000000,96.0000000000,0.0000000000
1717675138942,286.0000000000,331.0000000000,456.0000000000,147.0000000000,96.0000000000,0.0000000000
1717675138942,284.0000000000,327.0000000000,453.0000000000,147.0000000000,95.0000000000,0.0000000000
1717675138943,280.0000000000,327.0000000000,449.0000000000,146.0000000000,95.0000000000,0.0000000000
1717675138944,280.0000000000,353.0000000000,447.0000000000,145.0000000000,95.0000000000,0.0000000000
1717675138944,278.0000000000,455.0000000000,443.0000000000,143.0000000000,93.0000000000,0.0000000000
1717675138945,275.0000000000,451.0000000000,439.0000000000,143.0000000000,92.0000000000,0.0000000000
1717675138946,273.0000000000,448.0000000000,435.0000000000,143.0000000000,92.0000000000,0.0000000000
1717675138947,271.0000000000,443.0000000000,433.0000000000,142.0000000000,92.0000000000,0.0000000000
1717675138947,270.0000000000,440.0000000000,429.0000000000,141.0000000000,92.0000000000,0.0000000000
1717675138947,268.0000000000,435.0000000000,427.0000000000,140.0000000000,91.0000000000,0.0000000000
1717675138947,266.0000000000,432.0000000000,423.0000000000,139.0000000000,90.0000000000,0.0000000000
1717675138948,264.0000000000,428.0000000000,420.0000000000,139.0000000000,89.0000000000,0.0000000000
1717675138969,263.0000000000,423.0000000000,417.0000000000,137.0000000000,89.0000000000,0.0000000000
1717675138970,261.0000000000,422.0000000000,415.0000000000,137.0000000000,88.0000000000,0.0000000000
1717675138970,348.0000000000,418.0000000000,411.0000000000,136.0000000000,88.0000000000,0.0000000000
1717675138970,345.0000000000,415.0000000000,409.0000000000,135.0000000000,88.0000000000,0.0000000000
1717675138970,342.0000000000,411.0000000000,406.0000000000,135.0000000000,88.0000000000,0.0000000000
1717675138970,339.0000000000,408.0000000000,403.0000000000,134.0000000000,86.0000000000,0.0000000000
1717675138970,335.0000000000,406.0000000000,399.0000000000,133.0000000000,86.0000000000,0.0000000000
1717675138970,334.0000000000,402.0000000000,398.0000000000,132.0000000000,86.0000000000,0.0000000000
1717675138971,331.0000000000,399.0000000000,395.0000000000,131.0000000000,85.0000000000,0.0000000000
1717675138971,327.0000000000,423.0000000000,391.0000000000,131.0000000000,83.0000000000,0.0000000000
1717675138971,326.0000000000,419.0000000000,390.0000000000,130.0000000000,83.0000000000,0.0000000000
1717675138971,323.0000000000,415.0000000000,387.0000000000,130.0000000000,83.0000000000,0.0000000000
1717675138971,321.0000000000,412.0000000000,384.0000000000,129.0000000000,83.0000000000,0.0000000000
1717675138985,319.0000000000,408.0000000000,382.0000000000,127.0000000000,83.0000000000,0.0000000000
1717675138986,316.0000000000,405.0000000000,380.0000000000,127.0000000000,82.0000000000,0.0000000000
1717675138986,314.0000000000,402.0000000000,377.0000000000,127.0000000000,81.0000000000,0.0000000000
1717675138986,312.0000000000,398.0000000000,380.0000000000,127.0000000000,81.0000000000,0.0000000000
1717675138986,310.0000000000,396.0000000000,376.0000000000,126.0000000000,80.0000000000,0.0000000000
1717675138986,307.0000000000,393.0000000000,414.0000000000,125.0000000000,80.0000000000,0.0000000000
1717675138987,305.0000000000,390.0000000000,418.0000000000,124.0000000000,80.0000000000,0.0000000000
1717675138987,303.0000000000,387.0000000000,473.0000000000,124.0000000000,79.0000000000,0.0000000000
1717675138987,300.0000000000,384.0000000000,468.0000000000,123.0000000000,79.0000000000,0.0000000000
1717675139002,299.0000000000,382.0000000000,463.0000000000,123.0000000000,78.0000000000,0.0000000000
1717675139002,295.0000000000,378.0000000000,460.0000000000,121.0000000000,78.0000000000,0.0000000000
1717675139003,294.0000000000,376.0000000000,455.0000000000,121.0000000000,78.0000000000,0.0000000000
1717675139003,292.0000000000,373.0000000000,540.0000000000,120.0000000000,77.0000000000,0.0000000000
1717675139003,290.0000000000,371.0000000000,564.0000000000,120.0000000000,77.0000000000,0.0000000000
1717675139003,287.0000000000,368.0000000000,559.0000000000,120.0000000000,76.0000000000,0.0000000000
1717675139003,286.0000000000,365.0000000000,554.0000000000,119.0000000000,76.0000000000,0.0000000000
1717675139003,284.0000000000,361.0000000000,548.0000000000,118.0000000000,75.0000000000,0.0000000000
1717675139018,283.0000000000,359.0000000000,543.0000000000,118.0000000000,76.0000000000,0.0000000000
1717675139019,280.0000000000,358.0000000000,537.0000000000,116.0000000000,75.0000000000,0.0000000000
1717675139019,279.0000000000,355.0000000000,534.0000000000,115.0000000000,74.0000000000,0.0000000000
1717675139019,277.0000000000,352.0000000000,529.0000000000,115.0000000000,74.0000000000,0.0000000000
1717675139019,275.0000000000,350.0000000000,524.0000000000,115.0000000000,73.0000000000,0.0000000000
1717675139020,273.0000000000,348.0000000000,519.0000000000,115.0000000000,72.0000000000,0.0000000000
1717675139020,271.0000000000,345.0000000000,515.0000000000,113.0000000000,71.0000000000,0.0000000000
1717675139020,269.0000000000,344.0000000000,511.0000000000,113.0000000000,71.0000000000,0.0000000000
1717675139020,268.0000000000,341.0000000000,507.0000000000,112.0000000000,71.0000000000,0.0000000000
1717675139040,266.0000000000,339.0000000000,502.0000000000,112.0000000000,71.0000000000,0.0000000000
1717675139041,263.0000000000,336.0000000000,499.0000000000,111.0000000000,71.0000000000,0.0000000000
1717675139042,263.0000000000,344.0000000000,495.0000000000,111.0000000000,71.0000000000,0.0000000000
1717675139042,261.0000000000,342.0000000000,491.0000000000,110.0000000000,70.0000000000,0.0000000000
1717675139042,295.0000000000,339.0000000000,486.0000000000,110.0000000000,70.0000000000,0.0000000000
1717675139042,475.0000000000,336.0000000000,483.0000000000,108.0000000000,68.0000000000,0.0000000000
1717675139043,489.0000000000,333.0000000000,479.0000000000,108.0000000000,68.0000000000,0.0000000000
