timestamp,Channel 1,Channel 2,Channel 3,Channel 4,Channel 5,Channel 6
1717675115433,14.0000000000,0.0000000000,0.0000000000,44.0000000000,27.0000000000,7.0000000000
1717675115438,13.0000000000,0.0000000000,0.0000000000,43.0000000000,27.0000000000,6.0000000000
1717675115439,13.0000000000,0.0000000000,0.0000000000,44.0000000000,27.0000000000,7.0000000000
1717675115440,13.0000000000,0.0000000000,0.0000000000,46.0000000000,27.0000000000,7.0000000000
1717675115440,13.0000000000,0.0000000000,0.0000000000,51.0000000000,26.0000000000,7.0000000000
1717675115441,14.0000000000,0.0000000000,0.0000000000,51.0000000000,27.0000000000,7.0000000000
1717675115441,14.0000000000,0.0000000000,0.0000000000,51.0000000000,27.0000000000,7.0000000000
1717675115442,14.0000000000,0.0000000000,0.0000000000,51.0000000000,27.0000000000,6.0000000000
1717675115442,14.0000000000,0.0000000000,0.0000000000,51.0000000000,27.0000000000,6.0000000000
1717675115442,14.0000000000,0.0000000000,0.0000000000,50.0000000000,25.0000000000,6.0000000000
1717675115443,14.0000000000,0.0000000000,0.0000000000,49.0000000000,26.0000000000,6.0000000000
1717675115443,14.0000000000,0.0000000000,0.0000000000,49.0000000000,25.0000000000,6.0000000000
1717675115444,14.0000000000,0.0000000000,0.0000000000,49.0000000000,25.0000000000,6.0000000000
1717675115444,14.0000000000,0.0000000000,0.0000000000,49.0000000000,25.0000000000,6.0000000000
1717675115444,14.0000000000,0.0000000000,0.0000000000,48.0000000000,25.0000000000,6.0000000000
1717675115445,14.0000000000,0.0000000000,0.0000000000,48.0000000000,25.0000000000,6.0000000000
1717675115445,13.0000000000,0.0000000000,0.0000000000,48.0000000000,25.0000000000,6.0000000000
1717675115446,14.0000000000,0.0000000000,0.0000000000,48.0000000000,25.0000000000,6.0000000000
1717675115446,13.0000000000,0.0000000000,0.0000000000,48.0000000000,25.0000000000,6.0000000000
1717675115447,14.0000000000,0.0000000000,0.0000000000,47.0000000000,24.0000000000,6.0000000000
1717675115447,13.0000000000,0.0000000000,0.0000000000,48.0000000000,24.0000000000,6.0000000000
1717675115448,14.0000000000,0.0000000000,0.0000000000,47.0000000000,25.0000000000,6.0000000000
1717675115450,13.0000000000,0.0000000000,0.0000000000,47.0000000000,24.0000000000,6.0000000000
1717675115451,13.0000000000,0.0000000000,0.0000000000,47.0000000000,24.0000000000,6.0000000000
1717675115451,14.0000000000,0.0000000000,0.0000000000,46.0000000000,24.0000000000,6.0000000000
1717675115452,14.0000000000,0.0000000000,0.0000000000,46.0000000000,24.0000000000,6.0000000000
1717675115452,13.0000000000,0.0000000000,0.0000000000,46.0000000000,24.0000000000,6.0000000000
1717675115453,13.0000000000,0.0000000000,0.0000000000,45.0000000000,24.0000000000,6.0000000000
1717675115453,13.0000000000,0.0000000000,0.0000000000,46.0000000000,24.0000000000,6.0000000000
1717675115454,13.0000000000,0.0000000000,0.0000000000,45.0000000000,24.0000000000,6.0000000000
1717675115454,13.0000000000,0.0000000000,0.0000000000,45.0000000000,24.0000000000,5.0000000000
1717675115455,13.0000000000,0.0000000000,0.0000000000,45.0000000000,24.0000000000,5.0000000000
1717675115455,12.0000000000,0.0000000000,0.0000000000,44.0000000000,24.0000000000,6.0000000000
1717675115471,13.0000000000,0.0000000000,0.0000000000,44.0000000000,24.0000000000,6.0000000000
1717675115471,13.0000000000,0.0000000000,0.0000000000,44.0000000000,24.0000000000,5.0000000000
1717675115471,12.0000000000,0.0000000000,0.0000000000,44.0000000000,23.0000000000,5.0000000000
1717675115472,13.0000000000,0.0000000000,0.0000000000,44.0000000000,24.0000000000,5.0000000000
1717675115472,13.0000000000,0.0000000000,0.0000000000,43.0000000000,23.0000000000,5.0000000000
1717675115472,13.0000000000,0.0000000000,0.0000000000,44.0000000000,23.0000000000,5.0000000000
1717675115472,13.0000000000,0.0000000000,0.0000000000,43.0000000000,23.0000000000,5.0000000000
1717675115472,13.0000000000,0.0000000000,0.0000000000,43.0000000000,23.0000000000,5.0000000000
1717675115472,12.0000000000,0.0000000000,0.0000000000,43.0000000000,22.0000000000,5.0000000000
1717675115472,13.0000000000,0.0000000000,0.0000000000,43.0000000000,22.0000000000,5.0000000000
1717675115472,13.0000000000,0.0000000000,0.0000000000,42.0000000000,23.0000000000,4.0000000000
1717675115472,12.0000000000,0.0000000000,0.0000000000,41.0000000000,22.0000000000,5.0000000000
1717675115488,12.0000000000,0.0000000000,0.0000000000,42.0000000000,22.0000000000,5.0000000000
1717675115488,12.0000000000,0.0000000000,0.0000000000,41.0000000000,22.0000000000,5.0000000000
1717675115488,12.0000000000,0.0000000000,0.0000000000,41.0000000000,22.0000000000,4.0000000000
1717675115489,12.0000000000,0.0000000000,0.0000000000,41.0000000000,22.0000000000,4.0000000000
1717675115489,13.0000000000,0.0000000000,0.0000000000,40.0000000000,22.0000000000,4.0000000000
1717675115489,13.0000000000,0.0000000000,0.0000000000,39.0000000000,22.0000000000,4.0000000000
1717675115489,13.0000000000,0.0000000000,0.0000000000,39.0000000000,22.0000000000,5.0000000000
1717675115489,13.0000000000,0.0000000000,0.0000000000,40.0000000000,21.0000000000,4.0000000000
1717675115489,13.0000000000,0.0000000000,0.0000000000,39.0000000000,21.0000000000,4.0000000000
1717675115490,13.0000000000,0.0000000000,0.0000000000,39.0000000000,21.0000000000,4.0000000000
1717675115490,13.0000000000,0.0000000000,0.0000000000,39.0000000000,21.0000000000,4.0000000000
1717675115490,12.0000000000,0.0000000000,0.0000000000,39.0000000000,20.0000000000,4.0000000000
1717675115490,13.0000000000,0.0000000000,0.0000000000,39.0000000000,20.0000000000,3.0000000000
1717675115490,13.0000000000,0.0000000000,0.0000000000,39.0000000000,21.0000000000,4.0000000000
1717675115491,12.0000000000,0.0000000000,0.0000000000,43.0000000000,20.0000000000,4.0000000000
1717675115513,12.0000000000,0.0000000000,0.0000000000,45.0000000000,20.0000000000,4.0000000000
1717675115514,12.0000000000,0.0000000000,0.0000000000,44.0000000000,20.0000000000,4.0000000000
1717675115514,12.0000000000,0.0000000000,0.0000000000,44.0000000000,20.0000000000,4.0000000000
1717675115514,12.0000000000,0.0000000000,0.0000000000,44.0000000000,20.0000000000,4.0000000000
1717675115515,12.0000000000,0.0000000000,0.0000000000,44.0000000000,20.0000000000,4.0000000000
1717675115515,12.0000000000,0.0000000000,0.0000000000,43.0000000000,19.0000000000,4.0000000000
1717675115515,13.0000000000,0.0000000000,0.0000000000,43.0000000000,19.0000000000,4.0000000000
1717675115515,12.0000000000,0.0000000000,0.0000000000,43.0000000000,19.0000000000,4.0000000000
1717675115515,12.0000000000,0.0000000000,0.0000000000,43.0000000000,19.0000000000,3.0000000000
1717675115516,12.0000000000,0.0000000000,0.0000000000,42.0000000000,19.0000000000,4.0000000000
1717675115516,12.0000000000,0.0000000000,0.0000000000,41.0000000000,19.0000000000,4.0000000000
1717675115516,12.0000000000,0.0000000000,0.0000000000,42.0000000000,19.0000000000,4.0000000000
1717675115517,12.0000000000,0.0000000000,0.0000000000,41.0000000000,19.0000000000,4.0000000000
1717675115517,12.0000000000,0.0000000000,0.0000000000,41.0000000000,19.0000000000,4.0000000000
1717675115517,12.0000000000,0.0000000000,0.0000000000,41.0000000000,19.0000000000,3.0000000000
1717675115517,12.0000000000,0.0000000000,0.0000000000,41.0000000000,19.0000000000,4.0000000000
1717675115517,12.0000000000,0.0000000000,0.0000000000,41.0000000000,19.0000000000,4.0000000000
1717675115517,11.0000000000,0.0000000000,0.0000000000,40.0000000000,19.0000000000,3.0000000000
1717675115534,12.0000000000,0.0000000000,0.0000000000,39.0000000000,19.0000000000,4.0000000000
1717675115535,12.0000000000,0.0000000000,0.0000000000,39.0000000000,19.0000000000,4.0000000000
1717675115535,12.0000000000,0.0000000000,0.0000000000,39.0000000000,19.0000000000,3.0000000000
1717675115535,12.0000000000,0.0000000000,0.0000000000,39.0000000000,19.0000000000,3.0000000000
1717675115535,13.0000000000,0.0000000000,0.0000000000,65.0000000000,18.0000000000,3.0000000000
1717675115535,12.0000000000,0.0000000000,0.0000000000,84.0000000000,19.0000000000,3.0000000000
1717675115535,12.0000000000,0.0000000000,0.0000000000,83.0000000000,18.0000000000,3.0000000000
1717675115535,12.0000000000,0.0000000000,0.0000000000,83.0000000000,18.0000000000,3.0000000000
1717675115535,12.0000000000,0.0000000000,0.0000000000,82.0000000000,17.0000000000,3.0000000000
1717675115535,12.0000000000,0.0000000000,0.0000000000,82.0000000000,18.0000000000,3.0000000000
1717675115536,12.0000000000,0.0000000000,0.0000000000,81.0000000000,17.0000000000,3.0000000000
1717675115536,12.0000000000,0.0000000000,0.0000000000,81.0000000000,18.0000000000,3.0000000000
1717675115536,12.0000000000,0.0000000000,0.0000000000,79.0000000000,17.0000000000,3.0000000000
1717675115536,12.0000000000,0.0000000000,0.0000000000,79.0000000000,17.0000000000,3.0000000000
1717675115536,12.0000000000,0.0000000000,0.0000000000,79.0000000000,18.0000000000,3.0000000000
1717675115550,12.0000000000,0.0000000000,0.0000000000,79.0000000000,17.0000000000,3.0000000000
1717675115551,12.0000000000,0.0000000000,0.0000000000,78.0000000000,17.0000000000,3.0000000000
1717675115551,12.0000000000,0.0000000000,0.0000000000,78.0000000000,17.0000000000,3.0000000000
1717675115551,12.0000000000,0.0000000000,0.0000000000,78.0000000000,17.0000000000,3.0000000000
1717675115551,12.0000000000,0.0000000000,0.0000000000,77.0000000000,17.0000000000,3.0000000000
1717675115551,12.0000000000,0.0000000000,0.0000000000,77.0000000000,17.0000000000,3.0000000000
1717675115552,12.0000000000,0.0000000000,0.0000000000,77.0000000000,17.0000000000,3.0000000000
1717675115552,12.0000000000,0.0000000000,0.0000000000,76.0000000000,17.0000000000,3.0000000000
1717675115552,12.0000000000,0.0000000000,0.0000000000,76.0000000000,17.0000000000,3.0000000000
1717675115552,12.0000000000,0.0000000000,0.0000000000,76.0000000000,16.0000000000,3.0000000000
1717675115552,12.0000000000,0.0000000000,0.0000000000,75.0000000000,17.0000000000,3.0000000000
1717675115552,12.0000000000,0.0000000000,0.0000000000,75.0000000000,16.0000000000,3.0000000000
1717675115569,12.0000000000,0.0000000000,0.0000000000,75.0000000000,16.0000000000,3.0000000000
1717675115570,12.0000000000,0.0000000000,0.0000000000,74.0000000000,17.0000000000,3.0000000000
1717675115570,11.0000000000,0.0000000000,0.0000000000,74.0000000000,16.0000000000,3.0000000000
1717675115570,12.0000000000,0.0000000000,0.0000000000,73.0000000000,15.0000000000,3.0000000000
1717675115570,12.0000000000,0.0000000000,0.0000000000,72.0000000000,16.0000000000,3.0000000000
1717675115570,12.0000000000,0.0000000000,0.0000000000,71.0000000000,15.0000000000,3.0000000000
1717675115570,12.0000000000,0.0000000000,0.0000000000,71.0000000000,16.0000000000,3.0000000000
1717675115571,12.0000000000,0.0000000000,0.0000000000,71.0000000000,16.0000000000,3.0000000000
1717675115571,11.0000000000,0.0000000000,0.0000000000,71.0000000000,15.0000000000,3.0000000000
1717675115571,12.0000000000,0.0000000000,0.0000000000,71.0000000000,15.0000000000,3.0000000000
1717675115571,12.0000000000,0.0000000000,0.0000000000,71.0000000000,15.0000000000,3.0000000000
1717675115571,12.0000000000,0.0000000000,0.0000000000,71.0000000000,15.0000000000,3.0000000000
1717675115585,11.0000000000,0.0000000000,0.0000000000,70.0000000000,15.0000000000,3.0000000000
1717675115586,12.0000000000,0.0000000000,0.0000000000,70.0000000000,15.0000000000,3.0000000000
1717675115586,11.0000000000,0.0000000000,0.0000000000,70.0000000000,15.0000000000,3.0000000000
1717675115586,12.0000000000,0.0000000000,0.0000000000,70.0000000000,15.0000000000,3.0000000000
1717675115586,11.0000000000,0.0000000000,0.0000000000,69.0000000000,15.0000000000,3.0000000000
1717675115586,12.0000000000,0.0000000000,0.0000000000,69.0000000000,15.0000000000,3.0000000000
1717675115586,12.0000000000,0.0000000000,0.0000000000,68.0000000000,15.0000000000,3.0000000000
1717675115586,12.0000000000,0.0000000000,0.0000000000,68.0000000000,15.0000000000,3.0000000000
1717675115586,12.0000000000,0.0000000000,0.0000000000,67.0000000000,15.0000000000,3.0000000000
1717675115587,12.0000000000,0.0000000000,0.0000000000,67.0000000000,15.0000000000,3.0000000000
1717675115587,12.0000000000,0.0000000000,0.0000000000,67.0000000000,15.0000000000,2.0000000000
1717675115587,12.0000000000,0.0000000000,0.0000000000,67.0000000000,15.0000000000,3.0000000000
1717675115587,12.0000000000,0.0000000000,0.0000000000,66.0000000000,15.0000000000,3.0000000000
1717675115601,12.0000000000,0.0000000000,0.0000000000,88.0000000000,15.0000000000,3.0000000000
1717675115601,12.0000000000,0.0000000000,0.0000000000,88.0000000000,15.0000000000,3.0000000000
1717675115601,12.0000000000,0.0000000000,0.0000000000,87.0000000000,15.0000000000,3.0000000000
1717675115601,12.0000000000,0.0000000000,0.0000000000,86.0000000000,15.0000000000,3.0000000000
1717675115602,12.0000000000,0.0000000000,0.0000000000,86.0000000000,15.0000000000,2.0000000000
1717675115602,12.0000000000,0.0000000000,0.0000000000,85.0000000000,15.0000000000,3.0000000000
1717675115602,11.0000000000,0.0000000000,0.0000000000,84.0000000000,14.0000000000,3.0000000000
1717675115602,12.0000000000,0.0000000000,0.0000000000,84.0000000000,15.0000000000,2.0000000000
1717675115602,12.0000000000,0.0000000000,0.0000000000,83.0000000000,14.0000000000,3.0000000000
1717675115602,12.0000000000,0.0000000000,0.0000000000,83.0000000000,14.0000000000,3.0000000000
1717675115602,12.0000000000,0.0000000000,0.0000000000,83.0000000000,14.0000000000,2.0000000000
1717675115602,12.0000000000,0.0000000000,0.0000000000,82.0000000000,14.0000000000,3.0000000000
1717675115617,12.0000000000,0.0000000000,0.0000000000,82.0000000000,14.0000000000,3.0000000000
1717675115617,12.0000000000,0.0000000000,0.0000000000,81.0000000000,14.0000000000,2.0000000000
1717675115618,12.0000000000,0.0000000000,0.0000000000,81.0000000000,14.0000000000,2.0000000000
1717675115618,12.0000000000,0.0000000000,0.0000000000,80.0000000000,14.0000000000,2.0000000000
1717675115618,12.0000000000,0.0000000000,0.0000000000,80.0000000000,14.0000000000,2.0000000000
1717675115618,12.0000000000,0.0000000000,0.0000000000,80.0000000000,14.0000000000,2.0000000000
1717675115618,11.0000000000,0.0000000000,1.0000000000,79.0000000000,14.0000000000,2.0000000000
1717675115618,11.0000000000,0.0000000000,0.0000000000,97.0000000000,13.0000000000,3.0000000000
1717675115618,11.0000000000,0.0000000000,1.0000000000,97.0000000000,13.0000000000,2.0000000000
1717675115618,12.0000000000,0.0000000000,1.0000000000,96.0000000000,14.0000000000,2.0000000000
1717675115618,12.0000000000,0.0000000000,0.0000000000,96.0000000000,14.0000000000,2.0000000000
1717675115618,12.0000000000,0.0000000000,0.0000000000,95.0000000000,14.0000000000,2.0000000000
1717675115633,12.0000000000,0.0000000000,1.0000000000,95.0000000000,14.0000000000,2.0000000000
1717675115633,12.0000000000,0.0000000000,0.0000000000,94.0000000000,13.0000000000,2.0000000000
1717675115633,12.0000000000,0.0000000000,0.0000000000,94.0000000000,13.0000000000,2.0000000000
1717675115633,12.0000000000,0.0000000000,0.0000000000,94.0000000000,12.0000000000,2.0000000000
1717675115634,12.0000000000,0.0000000000,0.0000000000,93.0000000000,13.0000000000,2.0000000000
1717675115634,12.0000000000,0.0000000000,1.0000000000,93.0000000000,13.0000000000,2.0000000000
1717675115634,12.0000000000,0.0000000000,0.0000000000,92.0000000000,13.0000000000,2.0000000000
1717675115634,12.0000000000,0.0000000000,0.0000000000,92.0000000000,13.0000000000,1.0000000000
1717675115634,12.0000000000,0.0000000000,0.0000000000,92.0000000000,12.0000000000,2.0000000000
1717675115634,12.0000000000,0.0000000000,0.0000000000,91.0000000000,12.0000000000,2.0000000000
1717675115634,11.0000000000,0.0000000000,0.0000000000,91.0000000000,13.0000000000,1.0000000000
1717675115634,12.0000000000,0.0000000000,0.0000000000,89.0000000000,13.0000000000,2.0000000000
1717675115649,11.0000000000,0.0000000000,0.0000000000,89.0000000000,12.0000000000,1.0000000000
1717675115650,12.0000000000,0.0000000000,0.0000000000,88.0000000000,13.0000000000,2.0000000000
1717675115650,12.0000000000,0.0000000000,0.0000000000,88.0000000000,13.0000000000,2.0000000000
1717675115650,12.0000000000,35.0000000000,0.0000000000,88.0000000000,12.0000000000,2.0000000000
1717675115650,12.0000000000,39.0000000000,19.0000000000,88.0000000000,12.0000000000,1.0000000000
1717675115650,12.0000000000,63.0000000000,120.0000000000,88.0000000000,12.0000000000,1.0000000000
1717675115651,12.0000000000,63.0000000000,184.0000000000,87.0000000000,12.0000000000,2.0000000000
1717675115651,11.0000000000,63.0000000000,180.0000000000,87.0000000000,12.0000000000,1.0000000000
1717675115651,11.0000000000,62.0000000000,179.0000000000,86.0000000000,12.0000000000,2.0000000000
1717675115651,11.0000000000,62.0000000000,178.0000000000,85.0000000000,12.0000000000,1.0000000000
1717675115667,11.0000000000,61.0000000000,177.0000000000,85.0000000000,12.0000000000,1.0000000000
1717675115668,11.0000000000,61.0000000000,176.0000000000,84.0000000000,12.0000000000,1.0000000000
1717675115668,11.0000000000,60.0000000000,174.0000000000,84.0000000000,12.0000000000,1.0000000000
1717675115668,11.0000000000,60.0000000000,174.0000000000,83.0000000000,12.0000000000,1.0000000000
1717675115668,11.0000000000,60.0000000000,172.0000000000,83.0000000000,12.0000000000,1.0000000000
1717675115668,11.0000000000,59.0000000000,171.0000000000,83.0000000000,11.0000000000,2.0000000000
1717675115669,10.0000000000,76.0000000000,171.0000000000,82.0000000000,12.0000000000,1.0000000000
1717675115669,11.0000000000,164.0000000000,169.0000000000,81.0000000000,12.0000000000,2.0000000000
1717675115669,11.0000000000,161.0000000000,167.0000000000,81.0000000000,12.0000000000,2.0000000000
1717675115669,10.0000000000,159.0000000000,167.0000000000,80.0000000000,12.0000000000,1.0000000000
1717675115685,11.0000000000,159.0000000000,166.0000000000,80.0000000000,12.0000000000,1.0000000000
1717675115685,9.0000000000,158.0000000000,166.0000000000,79.0000000000,12.0000000000,1.0000000000
1717675115685,10.0000000000,156.0000000000,190.0000000000,79.0000000000,11.0000000000,1.0000000000
1717675115686,10.0000000000,156.0000000000,287.0000000000,79.0000000000,11.0000000000,1.0000000000
1717675115686,10.0000000000,153.0000000000,284.0000000000,78.0000000000,11.0000000000,1.0000000000
1717675115686,10.0000000000,153.0000000000,281.0000000000,78.0000000000,11.0000000000,1.0000000000
1717675115686,12.0000000000,152.0000000000,280.0000000000,77.0000000000,11.0000000000,1.0000000000
1717675115686,12.0000000000,152.0000000000,278.0000000000,77.0000000000,11.0000000000,1.0000000000
1717675115686,12.0000000000,151.0000000000,275.0000000000,76.0000000000,11.0000000000,1.0000000000
1717675115686,12.0000000000,150.0000000000,274.0000000000,76.0000000000,11.0000000000,1.0000000000
1717675115686,12.0000000000,148.0000000000,272.0000000000,76.0000000000,12.0000000000,1.0000000000
1717675115686,12.0000000000,147.0000000000,271.0000000000,75.0000000000,15.0000000000,1.0000000000
1717675115701,12.0000000000,147.0000000000,270.0000000000,75.0000000000,15.0000000000,1.0000000000
1717675115702,12.0000000000,146.0000000000,268.0000000000,75.0000000000,15.0000000000,1.0000000000
1717675115702,12.0000000000,145.0000000000,267.0000000000,74.0000000000,15.0000000000,1.0000000000
1717675115702,12.0000000000,144.0000000000,263.0000000000,73.0000000000,14.0000000000,1.0000000000
1717675115703,12.0000000000,143.0000000000,263.0000000000,73.0000000000,15.0000000000,1.0000000000
1717675115703,12.0000000000,143.0000000000,261.0000000000,71.0000000000,14.0000000000,1.0000000000
1717675115703,12.0000000000,142.0000000000,260.0000000000,72.0000000000,14.0000000000,1.0000000000
1717675115703,12.0000000000,140.0000000000,259.0000000000,71.0000000000,14.0000000000,1.0000000000
1717675115703,12.0000000000,140.0000000000,255.0000000000,71.0000000000,14.0000000000,1.0000000000
1717675115703,11.0000000000,139.0000000000,255.0000000000,71.0000000000,14.0000000000,1.0000000000
1717675115718,12.0000000000,139.0000000000,254.0000000000,71.0000000000,14.0000000000,1.0000000000
1717675115718,11.0000000000,137.0000000000,252.0000000000,70.0000000000,15.0000000000,1.0000000000
1717675115718,11.0000000000,137.0000000000,252.0000000000,70.0000000000,15.0000000000,1.0000000000
1717675115719,11.0000000000,135.0000000000,249.0000000000,69.0000000000,15.0000000000,1.0000000000
1717675115719,11.0000000000,135.0000000000,248.0000000000,69.0000000000,15.0000000000,1.0000000000
1717675115719,15.0000000000,135.0000000000,247.0000000000,76.0000000000,14.0000000000,1.0000000000
1717675115719,115.0000000000,134.0000000000,245.0000000000,76.0000000000,15.0000000000,1.0000000000
1717675115719,190.0000000000,134.0000000000,243.0000000000,75.0000000000,15.0000000000,1.0000000000
1717675115720,188.0000000000,132.0000000000,243.0000000000,75.0000000000,14.0000000000,1.0000000000
1717675115738,185.0000000000,131.0000000000,240.0000000000,74.0000000000,14.0000000000,1.0000000000
1717675115739,184.0000000000,131.0000000000,240.0000000000,73.0000000000,14.0000000000,1.0000000000
1717675115739,183.0000000000,130.0000000000,238.0000000000,71.0000000000,14.0000000000,1.0000000000
1717675115740,182.0000000000,129.0000000000,236.0000000000,72.0000000000,14.0000000000,1.0000000000
1717675115740,180.0000000000,129.0000000000,236.0000000000,79.0000000000,15.0000000000,1.0000000000
1717675115740,179.0000000000,127.0000000000,234.0000000000,79.0000000000,15.0000000000,0.0000000000
1717675115740,177.0000000000,127.0000000000,231.0000000000,78.0000000000,15.0000000000,1.0000000000
1717675115740,176.0000000000,126.0000000000,231.0000000000,78.0000000000,15.0000000000,1.0000000000
1717675115740,175.0000000000,126.0000000000,230.0000000000,78.0000000000,15.0000000000,1.0000000000
1717675115741,174.0000000000,124.0000000000,228.0000000000,77.0000000000,14.0000000000,0.0000000000
1717675115741,173.0000000000,124.0000000000,227.0000000000,77.0000000000,14.0000000000,1.0000000000
1717675115741,172.0000000000,124.0000000000,225.0000000000,76.0000000000,14.0000000000,0.0000000000
1717675115759,171.0000000000,123.0000000000,225.0000000000,76.0000000000,14.0000000000,1.0000000000
1717675115759,169.0000000000,122.0000000000,224.0000000000,76.0000000000,14.0000000000,1.0000000000
1717675115760,168.0000000000,123.0000000000,222.0000000000,75.0000000000,32.0000000000,1.0000000000
1717675115760,167.0000000000,121.0000000000,221.0000000000,75.0000000000,31.0000000000,0.0000000000
1717675115760,166.0000000000,121.0000000000,220.0000000000,73.0000000000,31.0000000000,1.0000000000
1717675115760,166.0000000000,120.0000000000,219.0000000000,73.0000000000,31.0000000000,1.0000000000
1717675115760,164.0000000000,120.0000000000,217.0000000000,72.0000000000,31.0000000000,1.0000000000
1717675115760,163.0000000000,119.0000000000,216.0000000000,71.0000000000,31.0000000000,1.0000000000
1717675115760,162.0000000000,118.0000000000,215.0000000000,71.0000000000,30.0000000000,1.0000000000
1717675115761,161.0000000000,118.0000000000,214.0000000000,71.0000000000,31.0000000000,1.0000000000
1717675115761,160.0000000000,116.0000000000,212.0000000000,71.0000000000,30.0000000000,1.0000000000
1717675115779,159.0000000000,116.0000000000,211.0000000000,71.0000000000,30.0000000000,1.0000000000
1717675115780,159.0000000000,115.0000000000,210.0000000000,70.0000000000,30.0000000000,1.0000000000
1717675115780,158.0000000000,115.0000000000,216.0000000000,70.0000000000,30.0000000000,1.0000000000
1717675115781,156.0000000000,114.0000000000,216.0000000000,70.0000000000,30.0000000000,1.0000000000
1717675115781,156.0000000000,113.0000000000,214.0000000000,69.0000000000,29.0000000000,1.0000000000
1717675115781,155.0000000000,113.0000000000,212.0000000000,68.0000000000,29.0000000000,0.0000000000
1717675115781,153.0000000000,146.0000000000,211.0000000000,67.0000000000,29.0000000000,1.0000000000
1717675115782,152.0000000000,145.0000000000,209.0000000000,67.0000000000,28.0000000000,1.0000000000
1717675115782,152.0000000000,143.0000000000,208.0000000000,67.0000000000,29.0000000000,0.0000000000
1717675115782,152.0000000000,143.0000000000,207.0000000000,67.0000000000,28.0000000000,1.0000000000
1717675115783,150.0000000000,142.0000000000,206.0000000000,67.0000000000,28.0000000000,1.0000000000
1717675115783,149.0000000000,142.0000000000,287.0000000000,66.0000000000,28.0000000000,1.0000000000
1717675115810,148.0000000000,140.0000000000,284.0000000000,65.0000000000,28.0000000000,1.0000000000
1717675115812,147.0000000000,140.0000000000,283.0000000000,65.0000000000,28.0000000000,1.0000000000
1717675115812,147.0000000000,173.0000000000,280.0000000000,65.0000000000,28.0000000000,0.0000000000
1717675115813,145.0000000000,248.0000000000,308.0000000000,65.0000000000,28.0000000000,1.0000000000
1717675115813,145.0000000000,245.0000000000,323.0000000000,65.0000000000,28.0000000000,0.0000000000
1717675115814,143.0000000000,243.0000000000,321.0000000000,71.0000000000,28.0000000000,1.0000000000
1717675115815,143.0000000000,241.0000000000,319.0000000000,73.0000000000,28.0000000000,1.0000000000
1717675115815,173.0000000000,240.0000000000,316.0000000000,73.0000000000,27.0000000000,1.0000000000
1717675115815,172.0000000000,238.0000000000,315.0000000000,71.0000000000,27.0000000000,0.0000000000
1717675115816,170.0000000000,236.0000000000,312.0000000000,71.0000000000,27.0000000000,0.0000000000
1717675115816,169.0000000000,235.0000000000,309.0000000000,71.0000000000,27.0000000000,1.0000000000
1717675115816,167.0000000000,232.0000000000,307.0000000000,71.0000000000,27.0000000000,0.0000000000
1717675115816,167.0000000000,231.0000000000,398.0000000000,120.0000000000,35.0000000000,0.0000000000
1717675115817,167.0000000000,326.0000000000,414.0000000000,118.0000000000,68.0000000000,0.0000000000
1717675115817,166.0000000000,391.0000000000,409.0000000000,115.0000000000,69.0000000000,0.0000000000
1717675115817,164.0000000000,388.0000000000,405.0000000000,115.0000000000,68.0000000000,0.0000000000
1717675115817,167.0000000000,384.0000000000,401.0000000000,115.0000000000,67.0000000000,0.0000000000
1717675115817,310.0000000000,381.0000000000,399.0000000000,114.0000000000,67.0000000000,1.0000000000
1717675115817,455.0000000000,377.0000000000,396.0000000000,113.0000000000,67.0000000000,0.0000000000
1717675115818,546.0000000000,374.0000000000,391.0000000000,112.0000000000,66.0000000000,0.0000000000
1717675115833,539.0000000000,371.0000000000,389.0000000000,111.0000000000,66.0000000000,0.0000000000
1717675115834,532.0000000000,369.0000000000,386.0000000000,111.0000000000,65.0000000000,0.0000000000
1717675115834,527.0000000000,366.0000000000,417.0000000000,110.0000000000,65.0000000000,0.0000000000
1717675115834,521.0000000000,363.0000000000,412.0000000000,109.0000000000,64.0000000000,0.0000000000
1717675115835,516.0000000000,360.0000000000,408.0000000000,108.0000000000,63.0000000000,0.0000000000
1717675115835,512.0000000000,358.0000000000,404.0000000000,108.0000000000,63.0000000000,0.0000000000
1717675115835,507.0000000000,355.0000000000,402.0000000000,107.0000000000,63.0000000000,0.0000000000
1717675115835,502.0000000000,352.0000000000,399.0000000000,107.0000000000,63.0000000000,0.0000000000
1717675115835,497.0000000000,350.0000000000,396.0000000000,110.0000000000,62.0000000000,1.0000000000
1717675115849,493.0000000000,430.0000000000,391.0000000000,110.0000000000,62.0000000000,0.0000000000
1717675115850,488.0000000000,423.0000000000,454.0000000000,110.0000000000,61.0000000000,0.0000000000
1717675115850,484.0000000000,420.0000000000,472.0000000000,108.0000000000,61.0000000000,0.0000000000
1717675115850,480.0000000000,417.0000000000,467.0000000000,108.0000000000,60.0000000000,0.0000000000
1717675115850,476.0000000000,414.0000000000,462.0000000000,108.0000000000,60.0000000000,0.0000000000
1717675115850,481.0000000000,411.0000000000,459.0000000000,107.0000000000,60.0000000000,0.0000000000
1717675115850,550.0000000000,408.0000000000,455.0000000000,203.0000000000,59.0000000000,0.0000000000
1717675115850,543.0000000000,404.0000000000,499.0000000000,219.0000000000,59.0000000000,0.0000000000
1717675115851,536.0000000000,401.0000000000,503.0000000000,216.0000000000,59.0000000000,0.0000000000
1717675115864,531.0000000000,397.0000000000,499.0000000000,214.0000000000,58.0000000000,0.0000000000
1717675115865,526.0000000000,394.0000000000,494.0000000000,212.0000000000,57.0000000000,3.0000000000
1717675115865,521.0000000000,391.0000000000,488.0000000000,211.0000000000,57.0000000000,7.0000000000
1717675115866,516.0000000000,388.0000000000,484.0000000000,209.0000000000,57.0000000000,7.0000000000
1717675115866,512.0000000000,385.0000000000,481.0000000000,207.0000000000,56.0000000000,6.0000000000
1717675115866,507.0000000000,460.0000000000,478.0000000000,206.0000000000,75.0000000000,6.0000000000
1717675115884,503.0000000000,455.0000000000,473.0000000000,205.0000000000,82.0000000000,6.0000000000
1717675115885,497.0000000000,451.0000000000,470.0000000000,203.0000000000,81.0000000000,6.0000000000
1717675115886,494.0000000000,448.0000000000,465.0000000000,201.0000000000,81.0000000000,7.0000000000
1717675115886,489.0000000000,444.0000000000,462.0000000000,199.0000000000,79.0000000000,6.0000000000
1717675115887,485.0000000000,440.0000000000,457.0000000000,199.0000000000,79.0000000000,6.0000000000
1717675115887,481.0000000000,436.0000000000,454.0000000000,198.0000000000,79.0000000000,6.0000000000
1717675115887,477.0000000000,432.0000000000,451.0000000000,196.0000000000,78.0000000000,6.0000000000
1717675115887,472.0000000000,428.0000000000,448.0000000000,195.0000000000,78.0000000000,6.0000000000
1717675115888,469.0000000000,425.0000000000,444.0000000000,193.0000000000,77.0000000000,6.0000000000
1717675115888,465.0000000000,423.0000000000,440.0000000000,193.0000000000,76.0000000000,6.0000000000
1717675115888,461.0000000000,419.0000000000,469.0000000000,192.0000000000,76.0000000000,6.0000000000
1717675115888,457.0000000000,415.0000000000,465.0000000000,190.0000000000,76.0000000000,6.0000000000
1717675115889,454.0000000000,412.0000000000,462.0000000000,189.0000000000,75.0000000000,6.0000000000
1717675115924,450.0000000000,409.0000000000,456.0000000000,188.0000000000,75.0000000000,6.0000000000
1717675115926,447.0000000000,407.0000000000,453.0000000000,190.0000000000,74.0000000000,5.0000000000
1717675115926,443.0000000000,403.0000000000,450.0000000000,188.0000000000,74.0000000000,6.0000000000
1717675115926,440.0000000000,399.0000000000,446.0000000000,188.0000000000,73.0000000000,6.0000000000
1717675115926,436.0000000000,398.0000000000,441.0000000000,186.0000000000,72.0000000000,6.0000000000
1717675115927,432.0000000000,395.0000000000,476.0000000000,185.0000000000,71.0000000000,6.0000000000
1717675115927,429.0000000000,391.0000000000,472.0000000000,184.0000000000,71.0000000000,6.0000000000
1717675115927,426.0000000000,388.0000000000,467.0000000000,182.0000000000,71.0000000000,6.0000000000
1717675115927,423.0000000000,386.0000000000,463.0000000000,182.0000000000,76.0000000000,5.0000000000
1717675115928,419.0000000000,384.0000000000,460.0000000000,179.0000000000,76.0000000000,5.0000000000
1717675115928,416.0000000000,380.0000000000,456.0000000000,240.0000000000,76.0000000000,5.0000000000
1717675115928,414.0000000000,377.0000000000,452.0000000000,248.0000000000,75.0000000000,6.0000000000
1717675115928,410.0000000000,376.0000000000,448.0000000000,246.0000000000,74.0000000000,5.0000000000
1717675115929,408.0000000000,372.0000000000,444.0000000000,244.0000000000,73.0000000000,5.0000000000
1717675115929,403.0000000000,369.0000000000,441.0000000000,242.0000000000,73.0000000000,5.0000000000
1717675115929,401.0000000000,367.0000000000,438.0000000000,240.0000000000,73.0000000000,5.0000000000
1717675115929,398.0000000000,364.0000000000,435.0000000000,239.0000000000,72.0000000000,4.0000000000
1717675115930,396.0000000000,361.0000000000,431.0000000000,237.0000000000,71.0000000000,5.0000000000
1717675115930,391.0000000000,359.0000000000,428.0000000000,235.0000000000,71.0000000000,4.0000000000
1717675115930,390.0000000000,357.0000000000,425.0000000000,233.0000000000,71.0000000000,4.0000000000
1717675115930,387.0000000000,354.0000000000,422.0000000000,231.0000000000,71.0000000000,5.0000000000
1717675115931,384.0000000000,352.0000000000,419.0000000000,231.0000000000,70.0000000000,5.0000000000
1717675115961,382.0000000000,350.0000000000,415.0000000000,228.0000000000,70.0000000000,4.0000000000
1717675115962,379.0000000000,348.0000000000,413.0000000000,227.0000000000,70.0000000000,4.0000000000
1717675115962,376.0000000000,345.0000000000,409.0000000000,225.0000000000,68.0000000000,4.0000000000
1717675115962,374.0000000000,344.0000000000,407.0000000000,224.0000000000,68.0000000000,5.0000000000
1717675115963,371.0000000000,340.0000000000,403.0000000000,223.0000000000,67.0000000000,4.0000000000
1717675115963,368.0000000000,338.0000000000,401.0000000000,221.0000000000,67.0000000000,5.0000000000
1717675115963,366.0000000000,335.0000000000,399.0000000000,220.0000000000,67.0000000000,4.0000000000
1717675115963,364.0000000000,421.0000000000,453.0000000000,255.0000000000,67.0000000000,4.0000000000
1717675115964,361.0000000000,417.0000000000,584.0000000000,340.0000000000,88.0000000000,4.0000000000
1717675115964,359.0000000000,412.0000000000,671.0000000000,335.0000000000,87.0000000000,4.0000000000
1717675115964,356.0000000000,408.0000000000,662.0000000000,332.0000000000,86.0000000000,4.0000000000
1717675115964,354.0000000000,407.0000000000,654.0000000000,331.0000000000,86.0000000000,4.0000000000
1717675115964,352.0000000000,403.0000000000,646.0000000000,327.0000000000,84.0000000000,4.0000000000
1717675115964,349.0000000000,399.0000000000,639.0000000000,324.0000000000,84.0000000000,4.0000000000
1717675115965,347.0000000000,396.0000000000,634.0000000000,322.0000000000,83.0000000000,4.0000000000
1717675115965,344.0000000000,393.0000000000,627.0000000000,319.0000000000,83.0000000000,4.0000000000
1717675115965,342.0000000000,390.0000000000,620.0000000000,318.0000000000,83.0000000000,4.0000000000
1717675115965,340.0000000000,387.0000000000,615.0000000000,316.0000000000,82.0000000000,4.0000000000
1717675115966,337.0000000000,384.0000000000,610.0000000000,312.0000000000,81.0000000000,3.0000000000
1717675115966,335.0000000000,382.0000000000,620.0000000000,312.0000000000,81.0000000000,3.0000000000
1717675115979,334.0000000000,379.0000000000,647.0000000000,308.0000000000,80.0000000000,3.0000000000
1717675115980,331.0000000000,376.0000000000,641.0000000000,306.0000000000,79.0000000000,3.0000000000
1717675115980,329.0000000000,372.0000000000,635.0000000000,304.0000000000,79.0000000000,3.0000000000
1717675115980,327.0000000000,370.0000000000,627.0000000000,302.0000000000,79.0000000000,3.0000000000
1717675115980,324.0000000000,368.0000000000,622.0000000000,300.0000000000,79.0000000000,3.0000000000
1717675115980,390.0000000000,365.0000000000,615.0000000000,297.0000000000,78.0000000000,3.0000000000
1717675115995,385.0000000000,362.0000000000,610.0000000000,295.0000000000,77.0000000000,3.0000000000
1717675115995,383.0000000000,359.0000000000,604.0000000000,293.0000000000,77.0000000000,3.0000000000
1717675115995,380.0000000000,358.0000000000,598.0000000000,292.0000000000,76.0000000000,3.0000000000
1717675115996,376.0000000000,385.0000000000,591.0000000000,289.0000000000,76.0000000000,3.0000000000
1717675115996,372.0000000000,382.0000000000,588.0000000000,287.0000000000,76.0000000000,3.0000000000
1717675115996,370.0000000000,377.0000000000,582.0000000000,286.0000000000,75.0000000000,3.0000000000
1717675115996,367.0000000000,376.0000000000,575.0000000000,284.0000000000,74.0000000000,3.0000000000
1717675115996,364.0000000000,372.0000000000,571.0000000000,282.0000000000,73.0000000000,3.0000000000
1717675115996,361.0000000000,369.0000000000,568.0000000000,280.0000000000,73.0000000000,3.0000000000
1717675116011,359.0000000000,366.0000000000,562.0000000000,278.0000000000,73.0000000000,3.0000000000
1717675116013,355.0000000000,364.0000000000,557.0000000000,276.0000000000,71.0000000000,3.0000000000
1717675116013,353.0000000000,363.0000000000,551.0000000000,276.0000000000,71.0000000000,3.0000000000
1717675116013,351.0000000000,359.0000000000,548.0000000000,275.0000000000,71.0000000000,3.0000000000
1717675116013,348.0000000000,358.0000000000,611.0000000000,272.0000000000,71.0000000000,3.0000000000
1717675116014,345.0000000000,355.0000000000,604.0000000000,271.0000000000,71.0000000000,3.0000000000
1717675116014,344.0000000000,352.0000000000,598.0000000000,270.0000000000,70.0000000000,3.0000000000
1717675116014,340.0000000000,350.0000000000,593.0000000000,268.0000000000,70.0000000000,3.0000000000
1717675116014,338.0000000000,347.0000000000,587.0000000000,265.0000000000,70.0000000000,3.0000000000
1717675116015,335.0000000000,345.0000000000,580.0000000000,263.0000000000,69.0000000000,3.0000000000
1717675116015,333.0000000000,343.0000000000,575.0000000000,263.0000000000,68.0000000000,3.0000000000
1717675116043,331.0000000000,340.0000000000,570.0000000000,260.0000000000,67.0000000000,3.0000000000
1717675116044,327.0000000000,337.0000000000,566.0000000000,259.0000000000,67.0000000000,3.0000000000
1717675116044,326.0000000000,335.0000000000,560.0000000000,257.0000000000,67.0000000000,3.0000000000
1717675116044,323.0000000000,334.0000000000,555.0000000000,255.0000000000,67.0000000000,3.0000000000
1717675116044,321.0000000000,332.0000000000,551.0000000000,255.0000000000,66.0000000000,3.0000000000
1717675116044,319.0000000000,329.0000000000,545.0000000000,252.0000000000,66.0000000000,2.0000000000
1717675116044,318.0000000000,327.0000000000,540.0000000000,252.0000000000,68.0000000000,3.0000000000
1717675116044,316.0000000000,326.0000000000,536.0000000000,249.0000000000,68.0000000000,3.0000000000
1717675116045,313.0000000000,323.0000000000,531.0000000000,248.0000000000,67.0000000000,3.0000000000
1717675116045,312.0000000000,321.0000000000,527.0000000000,246.0000000000,67.0000000000,3.0000000000
1717675116045,310.0000000000,319.0000000000,523.0000000000,244.0000000000,67.0000000000,3.0000000000
1717675116045,307.0000000000,317.0000000000,519.0000000000,243.0000000000,67.0000000000,3.0000000000
1717675116045,305.0000000000,380.0000000000,514.0000000000,241.0000000000,66.0000000000,3.0000000000
1717675116045,304.0000000000,376.0000000000,511.0000000000,240.0000000000,66.0000000000,3.0000000000
1717675116045,302.0000000000,374.0000000000,507.0000000000,239.0000000000,65.0000000000,3.0000000000
1717675116059,300.0000000000,371.0000000000,503.0000000000,238.0000000000,65.0000000000,3.0000000000
1717675116060,299.0000000000,368.0000000000,499.0000000000,236.0000000000,63.0000000000,3.0000000000
1717675116060,295.0000000000,364.0000000000,496.0000000000,235.0000000000,63.0000000000,3.0000000000
1717675116060,295.0000000000,361.0000000000,492.0000000000,233.0000000000,63.0000000000,2.0000000000
1717675116060,292.0000000000,359.0000000000,487.0000000000,231.0000000000,63.0000000000,3.0000000000
1717675116060,291.0000000000,356.0000000000,483.0000000000,231.0000000000,63.0000000000,3.0000000000
1717675116060,289.0000000000,353.0000000000,480.0000000000,229.0000000000,62.0000000000,2.0000000000
1717675116060,287.0000000000,417.0000000000,477.0000000000,227.0000000000,62.0000000000,3.0000000000
1717675116060,286.0000000000,413.0000000000,473.0000000000,226.0000000000,62.0000000000,3.0000000000
1717675116073,284.0000000000,414.0000000000,470.0000000000,225.0000000000,62.0000000000,2.0000000000
1717675116074,283.0000000000,455.0000000000,467.0000000000,224.0000000000,61.0000000000,2.0000000000
1717675116074,280.0000000000,451.0000000000,463.0000000000,222.0000000000,61.0000000000,2.0000000000
1717675116074,280.0000000000,448.0000000000,460.0000000000,221.0000000000,60.0000000000,2.0000000000
1717675116074,278.0000000000,444.0000000000,455.0000000000,220.0000000000,60.0000000000,2.0000000000
1717675116074,276.0000000000,440.0000000000,454.0000000000,269.0000000000,60.0000000000,2.0000000000
1717675116074,287.0000000000,436.0000000000,450.0000000000,317.0000000000,59.0000000000,2.0000000000
1717675116088,348.0000000000,433.0000000000,446.0000000000,315.0000000000,59.0000000000,2.0000000000
1717675116089,345.0000000000,430.0000000000,443.0000000000,312.0000000000,59.0000000000,2.0000000000
1717675116089,343.0000000000,425.0000000000,440.0000000000,310.0000000000,59.0000000000,2.0000000000
1717675116090,339.0000000000,481.0000000000,438.0000000000,307.0000000000,58.0000000000,2.0000000000
1717675116090,337.0000000000,476.0000000000,434.0000000000,305.0000000000,57.0000000000,1.0000000000
1717675116090,334.0000000000,472.0000000000,431.0000000000,303.0000000000,57.0000000000,1.0000000000
1717675116090,332.0000000000,468.0000000000,428.0000000000,300.0000000000,57.0000000000,2.0000000000
1717675116090,329.0000000000,463.0000000000,425.0000000000,297.0000000000,56.0000000000,2.0000000000
1717675116090,327.0000000000,460.0000000000,422.0000000000,295.0000000000,56.0000000000,1.0000000000
1717675116105,324.0000000000,456.0000000000,419.0000000000,294.0000000000,56.0000000000,2.0000000000
1717675116106,323.0000000000,452.0000000000,415.0000000000,326.0000000000,56.0000000000,1.0000000000
1717675116106,319.0000000000,448.0000000000,414.0000000000,322.0000000000,55.0000000000,2.0000000000
1717675116107,317.0000000000,444.0000000000,411.0000000000,319.0000000000,55.0000000000,1.0000000000
1717675116107,315.0000000000,441.0000000000,408.0000000000,318.0000000000,55.0000000000,1.0000000000
1717675116107,312.0000000000,438.0000000000,404.0000000000,315.0000000000,54.0000000000,2.0000000000
1717675116107,311.0000000000,434.0000000000,403.0000000000,313.0000000000,54.0000000000,1.0000000000
1717675116107,308.0000000000,431.0000000000,399.0000000000,311.0000000000,54.0000000000,1.0000000000
1717675116123,306.0000000000,428.0000000000,397.0000000000,308.0000000000,66.0000000000,1.0000000000
1717675116124,304.0000000000,423.0000000000,395.0000000000,306.0000000000,65.0000000000,2.0000000000
1717675116124,302.0000000000,420.0000000000,391.0000000000,304.0000000000,64.0000000000,1.0000000000
1717675116124,300.0000000000,417.0000000000,390.0000000000,302.0000000000,64.0000000000,1.0000000000
1717675116124,297.0000000000,415.0000000000,387.0000000000,299.0000000000,63.0000000000,1.0000000000
1717675116124,295.0000000000,412.0000000000,384.0000000000,297.0000000000,63.0000000000,1.0000000000
1717675116125,294.0000000000,408.0000000000,382.0000000000,295.0000000000,63.0000000000,1.0000000000
1717675116125,291.0000000000,405.0000000000,380.0000000000,293.0000000000,63.0000000000,2.0000000000
1717675116125,289.0000000000,403.0000000000,377.0000000000,291.0000000000,62.0000000000,1.0000000000
1717675116125,287.0000000000,399.0000000000,375.0000000000,289.0000000000,62.0000000000,1.0000000000
1717675116125,286.0000000000,396.0000000000,372.0000000000,287.0000000000,61.0000000000,1.0000000000
1717675116140,284.0000000000,393.0000000000,370.0000000000,284.0000000000,60.0000000000,1.0000000000
1717675116141,281.0000000000,391.0000000000,368.0000000000,284.0000000000,60.0000000000,1.0000000000
1717675116141,280.0000000000,388.0000000000,365.0000000000,281.0000000000,60.0000000000,1.0000000000
1717675116142,278.0000000000,385.0000000000,364.0000000000,280.0000000000,60.0000000000,1.0000000000
1717675116142,276.0000000000,435.0000000000,416.0000000000,278.0000000000,60.0000000000,1.0000000000
1717675116142,275.0000000000,441.0000000000,473.0000000000,275.0000000000,59.0000000000,1.0000000000
1717675116142,272.0000000000,438.0000000000,468.0000000000,273.0000000000,58.0000000000,1.0000000000
1717675116143,271.0000000000,434.0000000000,463.0000000000,271.0000000000,57.0000000000,1.0000000000
1717675116143,270.0000000000,430.0000000000,461.0000000000,270.0000000000,58.0000000000,1.0000000000
1717675116174,268.0000000000,427.0000000000,457.0000000000,268.0000000000,57.0000000000,1.0000000000
1717675116174,267.0000000000,423.0000000000,453.0000000000,267.0000000000,57.0000000000,1.0000000000
1717675116175,264.0000000000,419.0000000000,449.0000000000,264.0000000000,56.0000000000,1.0000000000
1717675116175,263.0000000000,415.0000000000,446.0000000000,263.0000000000,56.0000000000,1.0000000000
1717675116176,262.0000000000,412.0000000000,443.0000000000,262.0000000000,56.0000000000,1.0000000000
1717675116176,260.0000000000,411.0000000000,439.0000000000,260.0000000000,56.0000000000,1.0000000000
1717675116177,259.0000000000,407.0000000000,435.0000000000,258.0000000000,56.0000000000,1.0000000000
1717675116177,257.0000000000,403.0000000000,432.0000000000,255.0000000000,55.0000000000,1.0000000000
1717675116177,255.0000000000,399.0000000000,428.0000000000,255.0000000000,55.0000000000,1.0000000000
1717675116178,254.0000000000,398.0000000000,424.0000000000,253.0000000000,55.0000000000,1.0000000000
1717675116178,253.0000000000,395.0000000000,422.0000000000,252.0000000000,54.0000000000,1.0000000000
1717675116178,251.0000000000,391.0000000000,419.0000000000,249.0000000000,54.0000000000,0.0000000000
1717675116178,250.0000000000,388.0000000000,415.0000000000,248.0000000000,54.0000000000,1.0000000000
1717675116179,248.0000000000,438.0000000000,412.0000000000,248.0000000000,53.0000000000,1.0000000000
1717675116179,248.0000000000,531.0000000000,409.0000000000,246.0000000000,53.0000000000,1.0000000000
1717675116179,246.0000000000,525.0000000000,407.0000000000,243.0000000000,52.0000000000,1.0000000000
1717675116179,244.0000000000,519.0000000000,403.0000000000,242.0000000000,51.0000000000,1.0000000000
1717675116179,243.0000000000,515.0000000000,399.0000000000,241.0000000000,52.0000000000,1.0000000000
1717675116180,241.0000000000,510.0000000000,398.0000000000,240.0000000000,51.0000000000,1.0000000000
1717675116180,240.0000000000,505.0000000000,395.0000000000,238.0000000000,51.0000000000,1.0000000000
1717675116195,239.0000000000,501.0000000000,391.0000000000,236.0000000000,51.0000000000,1.0000000000
1717675116196,238.0000000000,497.0000000000,389.0000000000,235.0000000000,51.0000000000,0.0000000000
1717675116196,236.0000000000,493.0000000000,386.0000000000,233.0000000000,51.0000000000,1.0000000000
1717675116196,235.0000000000,488.0000000000,384.0000000000,231.0000000000,51.0000000000,1.0000000000
1717675116196,233.0000000000,484.0000000000,381.0000000000,231.0000000000,51.0000000000,1.0000000000
1717675116197,231.0000000000,480.0000000000,378.0000000000,230.0000000000,51.0000000000,1.0000000000
1717675116197,231.0000000000,477.0000000000,376.0000000000,227.0000000000,51.0000000000,1.0000000000
1717675116197,230.0000000000,527.0000000000,404.0000000000,227.0000000000,51.0000000000,1.0000000000
1717675116215,323.0000000000,522.0000000000,476.0000000000,225.0000000000,50.0000000000,1.0000000000
1717675116217,319.0000000000,516.0000000000,472.0000000000,224.0000000000,49.0000000000,1.0000000000
1717675116217,316.0000000000,513.0000000000,466.0000000000,223.0000000000,49.0000000000,1.0000000000
1717675116217,313.0000000000,508.0000000000,462.0000000000,221.0000000000,49.0000000000,0.0000000000
1717675116217,312.0000000000,504.0000000000,466.0000000000,220.0000000000,67.0000000000,1.0000000000
1717675116218,308.0000000000,499.0000000000,607.0000000000,219.0000000000,103.0000000000,1.0000000000
1717675116218,306.0000000000,494.0000000000,600.0000000000,217.0000000000,103.0000000000,1.0000000000
1717675116218,304.0000000000,491.0000000000,593.0000000000,216.0000000000,102.0000000000,0.0000000000
1717675116218,301.0000000000,486.0000000000,586.0000000000,215.0000000000,101.0000000000,0.0000000000
1717675116219,299.0000000000,482.0000000000,580.0000000000,214.0000000000,100.0000000000,1.0000000000
1717675116219,297.0000000000,478.0000000000,574.0000000000,212.0000000000,99.0000000000,1.0000000000
1717675116219,295.0000000000,473.0000000000,570.0000000000,211.0000000000,99.0000000000,1.0000000000
1717675116220,292.0000000000,470.0000000000,564.0000000000,209.0000000000,98.0000000000,0.0000000000
1717675116250,291.0000000000,465.0000000000,559.0000000000,208.0000000000,97.0000000000,1.0000000000
1717675116251,289.0000000000,463.0000000000,553.0000000000,207.0000000000,96.0000000000,1.0000000000
1717675116251,287.0000000000,459.0000000000,549.0000000000,206.0000000000,96.0000000000,1.0000000000
1717675116251,285.0000000000,455.0000000000,664.0000000000,204.0000000000,96.0000000000,1.0000000000
1717675116251,283.0000000000,451.0000000000,655.0000000000,203.0000000000,96.0000000000,0.0000000000
1717675116251,281.0000000000,448.0000000000,647.0000000000,203.0000000000,95.0000000000,1.0000000000
1717675116251,279.0000000000,444.0000000000,639.0000000000,201.0000000000,94.0000000000,1.0000000000
1717675116251,276.0000000000,441.0000000000,635.0000000000,199.0000000000,94.0000000000,1.0000000000
1717675116252,275.0000000000,438.0000000000,627.0000000000,199.0000000000,92.0000000000,1.0000000000
1717675116252,273.0000000000,435.0000000000,621.0000000000,198.0000000000,92.0000000000,0.0000000000
1717675116252,271.0000000000,431.0000000000,615.0000000000,196.0000000000,92.0000000000,1.0000000000
1717675116252,269.0000000000,428.0000000000,610.0000000000,195.0000000000,91.0000000000,0.0000000000
1717675116253,268.0000000000,423.0000000000,604.0000000000,195.0000000000,91.0000000000,1.0000000000
1717675116253,265.0000000000,422.0000000000,598.0000000000,193.0000000000,90.0000000000,0.0000000000
1717675116253,263.0000000000,463.0000000000,591.0000000000,192.0000000000,89.0000000000,1.0000000000
1717675116253,263.0000000000,460.0000000000,588.0000000000,271.0000000000,89.0000000000,0.0000000000
1717675116253,260.0000000000,455.0000000000,583.0000000000,268.0000000000,88.0000000000,1.0000000000
1717675116253,259.0000000000,495.0000000000,575.0000000000,266.0000000000,88.0000000000,0.0000000000
1717675116270,257.0000000000,489.0000000000,572.0000000000,263.0000000000,88.0000000000,0.0000000000
1717675116271,275.0000000000,485.0000000000,568.0000000000,262.0000000000,88.0000000000,1.0000000000
1717675116272,428.0000000000,480.0000000000,562.0000000000,259.0000000000,87.0000000000,0.0000000000
1717675116272,423.0000000000,477.0000000000,557.0000000000,259.0000000000,86.0000000000,0.0000000000
1717675116272,418.0000000000,472.0000000000,551.0000000000,255.0000000000,85.0000000000,1.0000000000
1717675116272,415.0000000000,468.0000000000,547.0000000000,255.0000000000,84.0000000000,1.0000000000
1717675116273,412.0000000000,463.0000000000,543.0000000000,252.0000000000,83.0000000000,0.0000000000
1717675116273,408.0000000000,461.0000000000,539.0000000000,252.0000000000,87.0000000000,0.0000000000
1717675116273,403.0000000000,457.0000000000,534.0000000000,249.0000000000,86.0000000000,0.0000000000
1717675116273,399.0000000000,452.0000000000,530.0000000000,248.0000000000,86.0000000000,0.0000000000
1717675116273,397.0000000000,473.0000000000,526.0000000000,246.0000000000,84.0000000000,0.0000000000
1717675116291,393.0000000000,527.0000000000,520.0000000000,244.0000000000,84.0000000000,0.0000000000
1717675116292,391.0000000000,524.0000000000,516.0000000000,243.0000000000,83.0000000000,1.0000000000
1717675116292,387.0000000000,519.0000000000,512.0000000000,241.0000000000,83.0000000000,0.0000000000
1717675116292,384.0000000000,513.0000000000,509.0000000000,240.0000000000,83.0000000000,0.0000000000
1717675116293,382.0000000000,508.0000000000,504.0000000000,238.0000000000,82.0000000000,0.0000000000
1717675116293,379.0000000000,505.0000000000,500.0000000000,236.0000000000,81.0000000000,0.0000000000
1717675116293,376.0000000000,500.0000000000,496.0000000000,235.0000000000,81.0000000000,0.0000000000
1717675116293,374.0000000000,496.0000000000,493.0000000000,232.0000000000,81.0000000000,0.0000000000
1717675116293,370.0000000000,492.0000000000,489.0000000000,231.0000000000,80.0000000000,0.0000000000
1717675116294,368.0000000000,487.0000000000,485.0000000000,230.0000000000,79.0000000000,0.0000000000
1717675116294,365.0000000000,483.0000000000,481.0000000000,228.0000000000,79.0000000000,0.0000000000
1717675116325,361.0000000000,480.0000000000,478.0000000000,227.0000000000,79.0000000000,0.0000000000
1717675116325,359.0000000000,476.0000000000,475.0000000000,225.0000000000,78.0000000000,0.0000000000
1717675116326,356.0000000000,472.0000000000,472.0000000000,224.0000000000,78.0000000000,0.0000000000
1717675116326,354.0000000000,572.0000000000,467.0000000000,223.0000000000,77.0000000000,0.0000000000
1717675116326,352.0000000000,563.0000000000,464.0000000000,222.0000000000,77.0000000000,0.0000000000
1717675116326,349.0000000000,558.0000000000,461.0000000000,220.0000000000,76.0000000000,0.0000000000
1717675116326,347.0000000000,553.0000000000,457.0000000000,219.0000000000,77.0000000000,0.0000000000
1717675116326,344.0000000000,548.0000000000,495.0000000000,217.0000000000,77.0000000000,0.0000000000
1717675116326,342.0000000000,543.0000000000,491.0000000000,216.0000000000,77.0000000000,0.0000000000
1717675116326,339.0000000000,536.0000000000,487.0000000000,214.0000000000,76.0000000000,0.0000000000
1717675116326,337.0000000000,534.0000000000,482.0000000000,213.0000000000,76.0000000000,0.0000000000
1717675116326,335.0000000000,527.0000000000,478.0000000000,211.0000000000,76.0000000000,0.0000000000
1717675116327,332.0000000000,524.0000000000,480.0000000000,211.0000000000,75.0000000000,0.0000000000
1717675116327,329.0000000000,519.0000000000,482.0000000000,209.0000000000,75.0000000000,0.0000000000
1717675116327,327.0000000000,568.0000000000,478.0000000000,207.0000000000,74.0000000000,0.0000000000
1717675116327,326.0000000000,563.0000000000,473.0000000000,207.0000000000,73.0000000000,0.0000000000
1717675116327,323.0000000000,601.0000000000,469.0000000000,210.0000000000,83.0000000000,0.0000000000
1717675116343,321.0000000000,595.0000000000,466.0000000000,238.0000000000,143.0000000000,0.0000000000
1717675116345,319.0000000000,588.0000000000,462.0000000000,236.0000000000,142.0000000000,0.0000000000
1717675116345,316.0000000000,582.0000000000,478.0000000000,234.0000000000,140.0000000000,0.0000000000
1717675116345,315.0000000000,575.0000000000,472.0000000000,231.0000000000,139.0000000000,0.0000000000
1717675116345,312.0000000000,572.0000000000,467.0000000000,231.0000000000,137.0000000000,0.0000000000
1717675116346,310.0000000000,566.0000000000,464.0000000000,229.0000000000,135.0000000000,0.0000000000
1717675116346,308.0000000000,560.0000000000,460.0000000000,227.0000000000,135.0000000000,0.0000000000
1717675116346,306.0000000000,555.0000000000,455.0000000000,225.0000000000,135.0000000000,0.0000000000
1717675116346,304.0000000000,550.0000000000,452.0000000000,224.0000000000,134.0000000000,0.0000000000
1717675116346,302.0000000000,544.0000000000,449.0000000000,223.0000000000,133.0000000000,0.0000000000
1717675116346,300.0000000000,540.0000000000,446.0000000000,222.0000000000,131.0000000000,0.0000000000
1717675116361,297.0000000000,535.0000000000,443.0000000000,220.0000000000,131.0000000000,0.0000000000
1717675116361,295.0000000000,529.0000000000,440.0000000000,218.0000000000,130.0000000000,0.0000000000
1717675116361,294.0000000000,524.0000000000,436.0000000000,216.0000000000,129.0000000000,0.0000000000
1717675116362,291.0000000000,519.0000000000,433.0000000000,215.0000000000,127.0000000000,0.0000000000
1717675116362,335.0000000000,515.0000000000,430.0000000000,213.0000000000,127.0000000000,0.0000000000
1717675116362,335.0000000000,511.0000000000,427.0000000000,212.0000000000,127.0000000000,0.0000000000
1717675116377,332.0000000000,505.0000000000,423.0000000000,211.0000000000,126.0000000000,0.0000000000
1717675116378,329.0000000000,593.0000000000,420.0000000000,209.0000000000,125.0000000000,0.0000000000
1717675116378,327.0000000000,588.0000000000,417.0000000000,207.0000000000,124.0000000000,0.0000000000
1717675116378,324.0000000000,582.0000000000,414.0000000000,207.0000000000,124.0000000000,1.0000000000
1717675116378,321.0000000000,575.0000000000,411.0000000000,205.0000000000,123.0000000000,0.0000000000
1717675116378,319.0000000000,569.0000000000,408.0000000000,204.0000000000,122.0000000000,0.0000000000
1717675116379,329.0000000000,563.0000000000,405.0000000000,202.0000000000,121.0000000000,0.0000000000
1717675116379,354.0000000000,558.0000000000,402.0000000000,200.0000000000,120.0000000000,0.0000000000
1717675116379,351.0000000000,551.0000000000,399.0000000000,199.0000000000,120.0000000000,0.0000000000
1717675116379,348.0000000000,547.0000000000,397.0000000000,199.0000000000,120.0000000000,0.0000000000
1717675116395,345.0000000000,542.0000000000,395.0000000000,196.0000000000,118.0000000000,0.0000000000
1717675116395,342.0000000000,536.0000000000,391.0000000000,195.0000000000,118.0000000000,0.0000000000
1717675116396,339.0000000000,531.0000000000,389.0000000000,195.0000000000,116.0000000000,0.0000000000
1717675116396,337.0000000000,526.0000000000,387.0000000000,193.0000000000,116.0000000000,0.0000000000
1717675116396,335.0000000000,627.0000000000,481.0000000000,192.0000000000,115.0000000000,0.0000000000
1717675116396,332.0000000000,617.0000000000,529.0000000000,192.0000000000,115.0000000000,0.0000000000
1717675116396,329.0000000000,612.0000000000,523.0000000000,190.0000000000,114.0000000000,0.0000000000
1717675116396,326.0000000000,605.0000000000,518.0000000000,189.0000000000,113.0000000000,0.0000000000
1717675116396,323.0000000000,599.0000000000,513.0000000000,188.0000000000,112.0000000000,0.0000000000
1717675116439,321.0000000000,591.0000000000,508.0000000000,187.0000000000,111.0000000000,0.0000000000
1717675116440,319.0000000000,587.0000000000,504.0000000000,185.0000000000,111.0000000000,0.0000000000
1717675116441,316.0000000000,580.0000000000,499.0000000000,184.0000000000,110.0000000000,0.0000000000
1717675116441,313.0000000000,575.0000000000,495.0000000000,184.0000000000,110.0000000000,0.0000000000
1717675116441,312.0000000000,568.0000000000,491.0000000000,183.0000000000,109.0000000000,0.0000000000
1717675116441,310.0000000000,563.0000000000,553.0000000000,182.0000000000,108.0000000000,0.0000000000
1717675116441,307.0000000000,558.0000000000,547.0000000000,180.0000000000,108.0000000000,0.0000000000
1717675116442,304.0000000000,552.0000000000,541.0000000000,179.0000000000,107.0000000000,0.0000000000
1717675116442,303.0000000000,547.0000000000,536.0000000000,178.0000000000,107.0000000000,0.0000000000
1717675116442,425.0000000000,543.0000000000,531.0000000000,177.0000000000,105.0000000000,0.0000000000
1717675116442,612.0000000000,537.0000000000,526.0000000000,176.0000000000,105.0000000000,0.0000000000
1717675116442,657.0000000000,534.0000000000,520.0000000000,175.0000000000,103.0000000000,0.0000000000
1717675116442,647.0000000000,529.0000000000,515.0000000000,174.0000000000,103.0000000000,0.0000000000
1717675116443,639.0000000000,524.0000000000,511.0000000000,174.0000000000,103.0000000000,0.0000000000
1717675116443,633.0000000000,519.0000000000,507.0000000000,172.0000000000,103.0000000000,0.0000000000
1717675116443,626.0000000000,515.0000000000,502.0000000000,171.0000000000,103.0000000000,0.0000000000
1717675116443,620.0000000000,510.0000000000,497.0000000000,170.0000000000,103.0000000000,0.0000000000
1717675116444,612.0000000000,505.0000000000,494.0000000000,169.0000000000,102.0000000000,0.0000000000
1717675116444,607.0000000000,501.0000000000,490.0000000000,167.0000000000,101.0000000000,0.0000000000
1717675116444,600.0000000000,496.0000000000,486.0000000000,167.0000000000,100.0000000000,0.0000000000
1717675116444,593.0000000000,592.0000000000,481.0000000000,166.0000000000,100.0000000000,0.0000000000
1717675116444,588.0000000000,607.0000000000,478.0000000000,165.0000000000,99.0000000000,0.0000000000
1717675116445,582.0000000000,600.0000000000,473.0000000000,164.0000000000,99.0000000000,0.0000000000
1717675116445,575.0000000000,594.0000000000,470.0000000000,163.0000000000,98.0000000000,0.0000000000
1717675116445,571.0000000000,588.0000000000,465.0000000000,163.0000000000,97.0000000000,0.0000000000
1717675116463,566.0000000000,583.0000000000,520.0000000000,161.0000000000,99.0000000000,0.0000000000
1717675116464,560.0000000000,575.0000000000,572.0000000000,161.0000000000,100.0000000000,0.0000000000
1717675116464,555.0000000000,572.0000000000,566.0000000000,159.0000000000,99.0000000000,0.0000000000
1717675116464,550.0000000000,566.0000000000,560.0000000000,159.0000000000,99.0000000000,0.0000000000
1717675116464,543.0000000000,560.0000000000,555.0000000000,158.0000000000,97.0000000000,0.0000000000
1717675116464,540.0000000000,555.0000000000,550.0000000000,157.0000000000,97.0000000000,0.0000000000
1717675116464,535.0000000000,549.0000000000,543.0000000000,157.0000000000,97.0000000000,0.0000000000
1717675116465,530.0000000000,545.0000000000,539.0000000000,156.0000000000,96.0000000000,0.0000000000
1717675116465,526.0000000000,540.0000000000,535.0000000000,155.0000000000,96.0000000000,0.0000000000
1717675116465,520.0000000000,536.0000000000,531.0000000000,159.0000000000,95.0000000000,0.0000000000
1717675116465,516.0000000000,531.0000000000,526.0000000000,174.0000000000,95.0000000000,0.0000000000
1717675116481,512.0000000000,527.0000000000,521.0000000000,173.0000000000,94.0000000000,0.0000000000
1717675116483,508.0000000000,521.0000000000,516.0000000000,171.0000000000,94.0000000000,0.0000000000
1717675116483,504.0000000000,517.0000000000,559.0000000000,170.0000000000,93.0000000000,0.0000000000
1717675116483,499.0000000000,512.0000000000,553.0000000000,168.0000000000,92.0000000000,0.0000000000
1717675116484,495.0000000000,508.0000000000,547.0000000000,167.0000000000,92.0000000000,0.0000000000
1717675116484,491.0000000000,504.0000000000,542.0000000000,167.0000000000,92.0000000000,0.0000000000
1717675116484,487.0000000000,499.0000000000,537.0000000000,166.0000000000,91.0000000000,0.0000000000
1717675116484,483.0000000000,496.0000000000,533.0000000000,164.0000000000,90.0000000000,0.0000000000
1717675116485,480.0000000000,492.0000000000,527.0000000000,163.0000000000,89.0000000000,0.0000000000
1717675116485,476.0000000000,537.0000000000,523.0000000000,162.0000000000,89.0000000000,0.0000000000
1717675116485,472.0000000000,531.0000000000,519.0000000000,161.0000000000,88.0000000000,0.0000000000
1717675116506,468.0000000000,527.0000000000,515.0000000000,159.0000000000,88.0000000000,0.0000000000
1717675116506,464.0000000000,523.0000000000,510.0000000000,159.0000000000,88.0000000000,0.0000000000
1717675116507,460.0000000000,562.0000000000,505.0000000000,159.0000000000,87.0000000000,0.0000000000
1717675116507,457.0000000000,556.0000000000,502.0000000000,157.0000000000,87.0000000000,0.0000000000
1717675116507,454.0000000000,550.0000000000,497.0000000000,156.0000000000,86.0000000000,0.0000000000
1717675116507,450.0000000000,545.0000000000,494.0000000000,155.0000000000,86.0000000000,0.0000000000
1717675116507,447.0000000000,540.0000000000,489.0000000000,154.0000000000,85.0000000000,0.0000000000
1717675116507,444.0000000000,536.0000000000,486.0000000000,153.0000000000,84.0000000000,0.0000000000
1717675116507,440.0000000000,529.0000000000,482.0000000000,152.0000000000,84.0000000000,0.0000000000
1717675116508,436.0000000000,527.0000000000,478.0000000000,236.0000000000,96.0000000000,0.0000000000
1717675116508,433.0000000000,521.0000000000,474.0000000000,231.0000000000,94.0000000000,0.0000000000
1717675116524,430.0000000000,515.0000000000,472.0000000000,231.0000000000,94.0000000000,0.0000000000
1717675116525,428.0000000000,511.0000000000,467.0000000000,228.0000000000,93.0000000000,0.0000000000
1717675116525,448.0000000000,507.0000000000,463.0000000000,227.0000000000,92.0000000000,0.0000000000
1717675116525,494.0000000000,504.0000000000,460.0000000000,225.0000000000,92.0000000000,0.0000000000
1717675116526,488.0000000000,498.0000000000,455.0000000000,224.0000000000,91.0000000000,0.0000000000
1717675116526,483.0000000000,494.0000000000,454.0000000000,222.0000000000,91.0000000000,0.0000000000
1717675116526,480.0000000000,490.0000000000,449.0000000000,220.0000000000,89.0000000000,0.0000000000
1717675116526,510.0000000000,487.0000000000,446.0000000000,220.0000000000,89.0000000000,0.0000000000
1717675116526,504.0000000000,483.0000000000,443.0000000000,217.0000000000,88.0000000000,0.0000000000
1717675116526,499.0000000000,479.0000000000,440.0000000000,216.0000000000,88.0000000000,0.0000000000
1717675116526,496.0000000000,475.0000000000,436.0000000000,215.0000000000,88.0000000000,0.0000000000
1717675116542,491.0000000000,472.0000000000,433.0000000000,213.0000000000,87.0000000000,0.0000000000
1717675116543,487.0000000000,467.0000000000,430.0000000000,211.0000000000,87.0000000000,0.0000000000
1717675116543,481.0000000000,463.0000000000,427.0000000000,211.0000000000,87.0000000000,0.0000000000
1717675116543,478.0000000000,460.0000000000,423.0000000000,209.0000000000,86.0000000000,0.0000000000
1717675116543,473.0000000000,457.0000000000,420.0000000000,207.0000000000,85.0000000000,0.0000000000
1717675116543,469.0000000000,454.0000000000,417.0000000000,206.0000000000,85.0000000000,0.0000000000
1717675116543,465.0000000000,451.0000000000,415.0000000000,240.0000000000,83.0000000000,0.0000000000
1717675116543,461.0000000000,447.0000000000,412.0000000000,280.0000000000,83.0000000000,0.0000000000
1717675116544,457.0000000000,444.0000000000,409.0000000000,277.0000000000,83.0000000000,0.0000000000
1717675116558,454.0000000000,441.0000000000,407.0000000000,275.0000000000,83.0000000000,0.0000000000
1717675116559,449.0000000000,579.0000000000,404.0000000000,272.0000000000,83.0000000000,0.0000000000
1717675116559,446.0000000000,572.0000000000,427.0000000000,271.0000000000,96.0000000000,0.0000000000
1717675116559,518.0000000000,568.0000000000,470.0000000000,268.0000000000,94.0000000000,0.0000000000
1717675116560,513.0000000000,561.0000000000,465.0000000000,267.0000000000,94.0000000000,0.0000000000
1717675116560,508.0000000000,556.0000000000,462.0000000000,263.0000000000,92.0000000000,0.0000000000
1717675116560,503.0000000000,550.0000000000,457.0000000000,263.0000000000,92.0000000000,3.0000000000
1717675116560,497.0000000000,543.0000000000,454.0000000000,260.0000000000,92.0000000000,4.0000000000
1717675116575,494.0000000000,540.0000000000,449.0000000000,259.0000000000,91.0000000000,3.0000000000
1717675116576,489.0000000000,536.0000000000,446.0000000000,257.0000000000,91.0000000000,4.0000000000
1717675116576,484.0000000000,531.0000000000,443.0000000000,255.0000000000,89.0000000000,4.0000000000
1717675116576,480.0000000000,526.0000000000,440.0000000000,254.0000000000,89.0000000000,4.0000000000
1717675116576,476.0000000000,521.0000000000,435.0000000000,252.0000000000,88.0000000000,4.0000000000
1717675116576,472.0000000000,517.0000000000,432.0000000000,251.0000000000,88.0000000000,4.0000000000
1717675116576,467.0000000000,512.0000000000,429.0000000000,248.0000000000,88.0000000000,3.0000000000
1717675116577,463.0000000000,507.0000000000,425.0000000000,247.0000000000,87.0000000000,3.0000000000
1717675116577,460.0000000000,504.0000000000,422.0000000000,246.0000000000,86.0000000000,3.0000000000
1717675116593,455.0000000000,499.0000000000,419.0000000000,252.0000000000,86.0000000000,3.0000000000
1717675116595,452.0000000000,515.0000000000,415.0000000000,250.0000000000,86.0000000000,3.0000000000
1717675116595,448.0000000000,509.0000000000,412.0000000000,248.0000000000,85.0000000000,3.0000000000
1717675116596,445.0000000000,505.0000000000,409.0000000000,247.0000000000,84.0000000000,3.0000000000
1717675116596,441.0000000000,500.0000000000,407.0000000000,246.0000000000,83.0000000000,3.0000000000
1717675116596,438.0000000000,496.0000000000,403.0000000000,243.0000000000,83.0000000000,3.0000000000
1717675116597,434.0000000000,492.0000000000,401.0000000000,241.0000000000,83.0000000000,3.0000000000
1717675116597,431.0000000000,487.0000000000,398.0000000000,295.0000000000,82.0000000000,3.0000000000
1717675116598,428.0000000000,483.0000000000,395.0000000000,291.0000000000,82.0000000000,3.0000000000
1717675116599,423.0000000000,480.0000000000,391.0000000000,289.0000000000,81.0000000000,3.0000000000
1717675116600,420.0000000000,476.0000000000,390.0000000000,287.0000000000,81.0000000000,3.0000000000
1717675116600,417.0000000000,481.0000000000,387.0000000000,285.0000000000,80.0000000000,3.0000000000
1717675116601,415.0000000000,476.0000000000,384.0000000000,283.0000000000,79.0000000000,3.0000000000
1717675116630,412.0000000000,472.0000000000,382.0000000000,280.0000000000,79.0000000000,3.0000000000
1717675116631,409.0000000000,468.0000000000,380.0000000000,279.0000000000,79.0000000000,3.0000000000
1717675116631,406.0000000000,465.0000000000,377.0000000000,277.0000000000,79.0000000000,3.0000000000
1717675116631,403.0000000000,461.0000000000,375.0000000000,275.0000000000,78.0000000000,3.0000000000
1717675116631,399.0000000000,457.0000000000,372.0000000000,273.0000000000,78.0000000000,3.0000000000
1717675116631,398.0000000000,454.0000000000,370.0000000000,290.0000000000,77.0000000000,3.0000000000
1717675116632,395.0000000000,450.0000000000,368.0000000000,337.0000000000,76.0000000000,3.0000000000
1717675116632,391.0000000000,447.0000000000,365.0000000000,334.0000000000,76.0000000000,3.0000000000
1717675116633,389.0000000000,444.0000000000,363.0000000000,331.0000000000,76.0000000000,3.0000000000
1717675116633,386.0000000000,440.0000000000,360.0000000000,327.0000000000,76.0000000000,3.0000000000
1717675116633,384.0000000000,436.0000000000,358.0000000000,326.0000000000,76.0000000000,3.0000000000
1717675116633,381.0000000000,434.0000000000,355.0000000000,323.0000000000,74.0000000000,3.0000000000
1717675116633,379.0000000000,431.0000000000,353.0000000000,321.0000000000,75.0000000000,3.0000000000
1717675116633,376.0000000000,427.0000000000,352.0000000000,319.0000000000,74.0000000000,3.0000000000
1717675116633,374.0000000000,423.0000000000,350.0000000000,316.0000000000,73.0000000000,3.0000000000
1717675116633,371.0000000000,422.0000000000,435.0000000000,314.0000000000,73.0000000000,3.0000000000
1717675116634,368.0000000000,419.0000000000,430.0000000000,312.0000000000,72.0000000000,3.0000000000
1717675116634,366.0000000000,415.0000000000,427.0000000000,310.0000000000,71.0000000000,3.0000000000
1717675116650,363.0000000000,412.0000000000,423.0000000000,307.0000000000,71.0000000000,3.0000000000
1717675116651,361.0000000000,409.0000000000,419.0000000000,305.0000000000,71.0000000000,3.0000000000
1717675116651,359.0000000000,407.0000000000,415.0000000000,303.0000000000,71.0000000000,2.0000000000
1717675116651,356.0000000000,403.0000000000,413.0000000000,300.0000000000,71.0000000000,2.0000000000
1717675116651,494.0000000000,401.0000000000,409.0000000000,299.0000000000,70.0000000000,2.0000000000
1717675116651,537.0000000000,399.0000000000,406.0000000000,295.0000000000,70.0000000000,2.0000000000
1717675116651,531.0000000000,396.0000000000,403.0000000000,295.0000000000,70.0000000000,3.0000000000
1717675116652,527.0000000000,392.0000000000,399.0000000000,292.0000000000,69.0000000000,2.0000000000
1717675116652,521.0000000000,393.0000000000,397.0000000000,291.0000000000,69.0000000000,3.0000000000
1717675116672,516.0000000000,391.0000000000,393.0000000000,288.0000000000,68.0000000000,2.0000000000
1717675116673,579.0000000000,388.0000000000,391.0000000000,287.0000000000,67.0000000000,2.0000000000
1717675116674,571.0000000000,385.0000000000,388.0000000000,284.0000000000,67.0000000000,2.0000000000
1717675116674,564.0000000000,383.0000000000,386.0000000000,283.0000000000,67.0000000000,2.0000000000
1717675116674,559.0000000000,388.0000000000,382.0000000000,281.0000000000,67.0000000000,2.0000000000
1717675116674,553.0000000000,384.0000000000,380.0000000000,280.0000000000,67.0000000000,3.0000000000
1717675116674,547.0000000000,382.0000000000,377.0000000000,278.0000000000,66.0000000000,2.0000000000
1717675116674,543.0000000000,379.0000000000,375.0000000000,275.0000000000,81.0000000000,3.0000000000
1717675116675,538.0000000000,376.0000000000,371.0000000000,274.0000000000,79.0000000000,2.0000000000
1717675116675,532.0000000000,375.0000000000,368.0000000000,271.0000000000,79.0000000000,2.0000000000
1717675116675,527.0000000000,371.0000000000,366.0000000000,270.0000000000,79.0000000000,2.0000000000
1717675116675,523.0000000000,369.0000000000,364.0000000000,268.0000000000,78.0000000000,2.0000000000
1717675116676,518.0000000000,366.0000000000,361.0000000000,266.0000000000,78.0000000000,2.0000000000
1717675116695,513.0000000000,364.0000000000,359.0000000000,265.0000000000,77.0000000000,2.0000000000
1717675116695,508.0000000000,361.0000000000,355.0000000000,263.0000000000,76.0000000000,2.0000000000
1717675116695,504.0000000000,359.0000000000,354.0000000000,262.0000000000,76.0000000000,2.0000000000
1717675116695,499.0000000000,358.0000000000,352.0000000000,259.0000000000,76.0000000000,2.0000000000
1717675116696,496.0000000000,355.0000000000,349.0000000000,259.0000000000,75.0000000000,2.0000000000
1717675116696,491.0000000000,353.0000000000,347.0000000000,255.0000000000,75.0000000000,1.0000000000
1717675116696,487.0000000000,351.0000000000,345.0000000000,255.0000000000,75.0000000000,2.0000000000
1717675116697,483.0000000000,348.0000000000,343.0000000000,253.0000000000,73.0000000000,2.0000000000
1717675116697,479.0000000000,347.0000000000,340.0000000000,252.0000000000,73.0000000000,2.0000000000
1717675116697,475.0000000000,344.0000000000,338.0000000000,251.0000000000,72.0000000000,2.0000000000
1717675116697,471.0000000000,342.0000000000,336.0000000000,248.0000000000,71.0000000000,2.0000000000
1717675116711,467.0000000000,339.0000000000,401.0000000000,354.0000000000,71.0000000000,2.0000000000
1717675116711,463.0000000000,337.0000000000,398.0000000000,351.0000000000,71.0000000000,1.0000000000
1717675116711,460.0000000000,335.0000000000,393.0000000000,348.0000000000,71.0000000000,2.0000000000
1717675116711,455.0000000000,385.0000000000,391.0000000000,344.0000000000,71.0000000000,2.0000000000
1717675116711,452.0000000000,436.0000000000,388.0000000000,342.0000000000,70.0000000000,1.0000000000
1717675116712,449.0000000000,433.0000000000,385.0000000000,339.0000000000,70.0000000000,1.0000000000
1717675116712,445.0000000000,428.0000000000,382.0000000000,336.0000000000,69.0000000000,1.0000000000
1717675116712,441.0000000000,425.0000000000,380.0000000000,334.0000000000,69.0000000000,2.0000000000
1717675116729,438.0000000000,420.0000000000,376.0000000000,331.0000000000,68.0000000000,1.0000000000
1717675116730,435.0000000000,418.0000000000,374.0000000000,329.0000000000,68.0000000000,1.0000000000
1717675116730,432.0000000000,415.0000000000,370.0000000000,327.0000000000,67.0000000000,1.0000000000
1717675116730,428.0000000000,411.0000000000,368.0000000000,324.0000000000,67.0000000000,1.0000000000
1717675116730,425.0000000000,408.0000000000,366.0000000000,321.0000000000,67.0000000000,1.0000000000
1717675116730,422.0000000000,403.0000000000,363.0000000000,319.0000000000,67.0000000000,1.0000000000
1717675116730,419.0000000000,401.0000000000,359.0000000000,318.0000000000,66.0000000000,1.0000000000
1717675116730,415.0000000000,399.0000000000,358.0000000000,315.0000000000,65.0000000000,1.0000000000
1717675116731,412.0000000000,395.0000000000,355.0000000000,312.0000000000,65.0000000000,1.0000000000
1717675116731,409.0000000000,391.0000000000,352.0000000000,310.0000000000,65.0000000000,1.0000000000
1717675116731,406.0000000000,390.0000000000,350.0000000000,308.0000000000,64.0000000000,1.0000000000
1717675116749,403.0000000000,386.0000000000,348.0000000000,307.0000000000,63.0000000000,1.0000000000
1717675116750,400.0000000000,384.0000000000,345.0000000000,304.0000000000,63.0000000000,1.0000000000
1717675116750,476.0000000000,404.0000000000,344.0000000000,302.0000000000,63.0000000000,1.0000000000
1717675116750,472.0000000000,446.0000000000,340.0000000000,300.0000000000,63.0000000000,1.0000000000
1717675116750,467.0000000000,441.0000000000,338.0000000000,299.0000000000,62.0000000000,1.0000000000
1717675116750,463.0000000000,436.0000000000,336.0000000000,295.0000000000,62.0000000000,1.0000000000
1717675116750,459.0000000000,433.0000000000,334.0000000000,294.0000000000,62.0000000000,1.0000000000
1717675116751,455.0000000000,430.0000000000,332.0000000000,292.0000000000,62.0000000000,1.0000000000
1717675116751,451.0000000000,427.0000000000,329.0000000000,290.0000000000,61.0000000000,1.0000000000
1717675116764,447.0000000000,422.0000000000,327.0000000000,288.0000000000,61.0000000000,1.0000000000
1717675116765,444.0000000000,419.0000000000,327.0000000000,287.0000000000,60.0000000000,1.0000000000
1717675116766,440.0000000000,415.0000000000,323.0000000000,284.0000000000,60.0000000000,1.0000000000
1717675116766,435.0000000000,472.0000000000,322.0000000000,283.0000000000,60.0000000000,1.0000000000
1717675116766,432.0000000000,467.0000000000,320.0000000000,280.0000000000,59.0000000000,1.0000000000
1717675116767,428.0000000000,462.0000000000,319.0000000000,279.0000000000,59.0000000000,1.0000000000
1717675116767,425.0000000000,459.0000000000,316.0000000000,278.0000000000,59.0000000000,1.0000000000
1717675116767,422.0000000000,455.0000000000,315.0000000000,275.0000000000,59.0000000000,1.0000000000
1717675116767,418.0000000000,451.0000000000,313.0000000000,273.0000000000,59.0000000000,1.0000000000
1717675116782,415.0000000000,447.0000000000,312.0000000000,271.0000000000,57.0000000000,1.0000000000
1717675116783,412.0000000000,444.0000000000,310.0000000000,271.0000000000,57.0000000000,1.0000000000
1717675116783,408.0000000000,494.0000000000,307.0000000000,268.0000000000,57.0000000000,1.0000000000
1717675116783,405.0000000000,488.0000000000,306.0000000000,267.0000000000,57.0000000000,1.0000000000
1717675116784,402.0000000000,483.0000000000,304.0000000000,263.0000000000,56.0000000000,0.0000000000
1717675116784,399.0000000000,480.0000000000,303.0000000000,263.0000000000,56.0000000000,1.0000000000
1717675116784,396.0000000000,476.0000000000,300.0000000000,262.0000000000,56.0000000000,1.0000000000
1717675116784,392.0000000000,472.0000000000,299.0000000000,260.0000000000,56.0000000000,1.0000000000
1717675116784,391.0000000000,467.0000000000,297.0000000000,258.0000000000,56.0000000000,1.0000000000
1717675116797,387.0000000000,463.0000000000,295.0000000000,255.0000000000,55.0000000000,1.0000000000
1717675116798,385.0000000000,460.0000000000,294.0000000000,255.0000000000,55.0000000000,1.0000000000
1717675116798,382.0000000000,455.0000000000,398.0000000000,254.0000000000,54.0000000000,1.0000000000
1717675116798,379.0000000000,451.0000000000,395.0000000000,252.0000000000,54.0000000000,1.0000000000
1717675116798,376.0000000000,448.0000000000,391.0000000000,250.0000000000,54.0000000000,1.0000000000
1717675116798,374.0000000000,445.0000000000,387.0000000000,249.0000000000,54.0000000000,0.0000000000
1717675116798,393.0000000000,441.0000000000,384.0000000000,248.0000000000,53.0000000000,1.0000000000
1717675116798,390.0000000000,438.0000000000,381.0000000000,246.0000000000,52.0000000000,0.0000000000
1717675116814,387.0000000000,433.0000000000,378.0000000000,243.0000000000,53.0000000000,1.0000000000
1717675116814,384.0000000000,432.0000000000,375.0000000000,243.0000000000,52.0000000000,1.0000000000
1717675116815,380.0000000000,428.0000000000,372.0000000000,241.0000000000,52.0000000000,1.0000000000
1717675116815,377.0000000000,423.0000000000,369.0000000000,240.0000000000,51.0000000000,0.0000000000
1717675116815,374.0000000000,421.0000000000,368.0000000000,238.0000000000,53.0000000000,0.0000000000
1717675116815,371.0000000000,418.0000000000,364.0000000000,237.0000000000,52.0000000000,0.0000000000
1717675116815,368.0000000000,415.0000000000,361.0000000000,236.0000000000,52.0000000000,1.0000000000
1717675116815,366.0000000000,412.0000000000,359.0000000000,235.0000000000,52.0000000000,1.0000000000
1717675116815,364.0000000000,408.0000000000,356.0000000000,232.0000000000,52.0000000000,0.0000000000
1717675116829,360.0000000000,406.0000000000,354.0000000000,231.0000000000,52.0000000000,1.0000000000
1717675116829,359.0000000000,402.0000000000,352.0000000000,230.0000000000,51.0000000000,1.0000000000
1717675116830,356.0000000000,399.0000000000,349.0000000000,228.0000000000,51.0000000000,1.0000000000
1717675116830,353.0000000000,396.0000000000,347.0000000000,227.0000000000,51.0000000000,1.0000000000
1717675116830,352.0000000000,393.0000000000,344.0000000000,226.0000000000,51.0000000000,1.0000000000
1717675116830,350.0000000000,391.0000000000,342.0000000000,225.0000000000,75.0000000000,1.0000000000
1717675116830,347.0000000000,427.0000000000,339.0000000000,223.0000000000,74.0000000000,0.0000000000
1717675116830,344.0000000000,422.0000000000,337.0000000000,222.0000000000,73.0000000000,1.0000000000
1717675116830,343.0000000000,419.0000000000,335.0000000000,220.0000000000,73.0000000000,0.0000000000
1717675116847,457.0000000000,415.0000000000,333.0000000000,220.0000000000,71.0000000000,0.0000000000
1717675116848,519.0000000000,412.0000000000,330.0000000000,218.0000000000,71.0000000000,0.0000000000
1717675116849,513.0000000000,408.0000000000,365.0000000000,217.0000000000,71.0000000000,1.0000000000
1717675116849,508.0000000000,405.0000000000,391.0000000000,216.0000000000,71.0000000000,0.0000000000
1717675116849,504.0000000000,402.0000000000,387.0000000000,214.0000000000,71.0000000000,1.0000000000
1717675116849,498.0000000000,399.0000000000,384.0000000000,212.0000000000,70.0000000000,0.0000000000
1717675116849,494.0000000000,396.0000000000,381.0000000000,211.0000000000,70.0000000000,0.0000000000
1717675116849,489.0000000000,391.0000000000,379.0000000000,211.0000000000,69.0000000000,0.0000000000
1717675116849,485.0000000000,390.0000000000,376.0000000000,209.0000000000,68.0000000000,0.0000000000
1717675116849,480.0000000000,387.0000000000,372.0000000000,208.0000000000,68.0000000000,0.0000000000
1717675116850,476.0000000000,384.0000000000,370.0000000000,207.0000000000,68.0000000000,0.0000000000
1717675116863,472.0000000000,381.0000000000,411.0000000000,206.0000000000,67.0000000000,0.0000000000
1717675116865,468.0000000000,379.0000000000,406.0000000000,205.0000000000,67.0000000000,3.0000000000
1717675116866,463.0000000000,376.0000000000,403.0000000000,204.0000000000,66.0000000000,3.0000000000
1717675116866,460.0000000000,372.0000000000,399.0000000000,255.0000000000,67.0000000000,3.0000000000
1717675116867,455.0000000000,370.0000000000,396.0000000000,254.0000000000,66.0000000000,3.0000000000
1717675116867,452.0000000000,460.0000000000,393.0000000000,252.0000000000,65.0000000000,3.0000000000
1717675116868,449.0000000000,455.0000000000,391.0000000000,250.0000000000,91.0000000000,3.0000000000
1717675116868,446.0000000000,450.0000000000,387.0000000000,248.0000000000,89.0000000000,3.0000000000
1717675116868,441.0000000000,446.0000000000,384.0000000000,246.0000000000,88.0000000000,3.0000000000
1717675116903,438.0000000000,443.0000000000,381.0000000000,244.0000000000,88.0000000000,3.0000000000
1717675116904,435.0000000000,440.0000000000,379.0000000000,332.0000000000,88.0000000000,3.0000000000
1717675116904,432.0000000000,487.0000000000,406.0000000000,327.0000000000,87.0000000000,3.0000000000
1717675116905,428.0000000000,482.0000000000,428.0000000000,325.0000000000,86.0000000000,3.0000000000
1717675116905,423.0000000000,479.0000000000,423.0000000000,323.0000000000,86.0000000000,3.0000000000
1717675116905,481.0000000000,557.0000000000,419.0000000000,319.0000000000,85.0000000000,3.0000000000
1717675116905,476.0000000000,550.0000000000,417.0000000000,318.0000000000,84.0000000000,3.0000000000
1717675116906,472.0000000000,543.0000000000,414.0000000000,315.0000000000,83.0000000000,3.0000000000
1717675116906,467.0000000000,539.0000000000,410.0000000000,313.0000000000,83.0000000000,3.0000000000
1717675116906,463.0000000000,536.0000000000,407.0000000000,311.0000000000,83.0000000000,2.0000000000
1717675116906,459.0000000000,529.0000000000,403.0000000000,307.0000000000,82.0000000000,2.0000000000
1717675116907,455.0000000000,524.0000000000,401.0000000000,305.0000000000,81.0000000000,3.0000000000
1717675116907,451.0000000000,519.0000000000,486.0000000000,304.0000000000,81.0000000000,3.0000000000
1717675116907,447.0000000000,515.0000000000,480.0000000000,302.0000000000,81.0000000000,2.0000000000
1717675116907,443.0000000000,511.0000000000,475.0000000000,300.0000000000,79.0000000000,2.0000000000
1717675116908,439.0000000000,505.0000000000,472.0000000000,297.0000000000,79.0000000000,2.0000000000
1717675116908,435.0000000000,502.0000000000,467.0000000000,295.0000000000,79.0000000000,3.0000000000
1717675116908,432.0000000000,498.0000000000,463.0000000000,293.0000000000,79.0000000000,2.0000000000
1717675116908,428.0000000000,494.0000000000,459.0000000000,291.0000000000,78.0000000000,3.0000000000
1717675116909,424.0000000000,489.0000000000,455.0000000000,289.0000000000,78.0000000000,2.0000000000
1717675116909,422.0000000000,583.0000000000,452.0000000000,287.0000000000,78.0000000000,2.0000000000
1717675116928,419.0000000000,577.0000000000,448.0000000000,285.0000000000,77.0000000000,2.0000000000
1717675116929,415.0000000000,571.0000000000,444.0000000000,284.0000000000,76.0000000000,2.0000000000
1717675116929,412.0000000000,566.0000000000,499.0000000000,281.0000000000,76.0000000000,2.0000000000
1717675116929,408.0000000000,559.0000000000,502.0000000000,280.0000000000,75.0000000000,3.0000000000
1717675116929,406.0000000000,555.0000000000,496.0000000000,278.0000000000,75.0000000000,1.0000000000
1717675116930,402.0000000000,550.0000000000,492.0000000000,275.0000000000,75.0000000000,2.0000000000
1717675116930,399.0000000000,545.0000000000,488.0000000000,370.0000000000,74.0000000000,2.0000000000
1717675116930,396.0000000000,540.0000000000,484.0000000000,417.0000000000,73.0000000000,2.0000000000
1717675116930,393.0000000000,536.0000000000,480.0000000000,414.0000000000,73.0000000000,2.0000000000
1717675116931,414.0000000000,530.0000000000,476.0000000000,410.0000000000,72.0000000000,2.0000000000
1717675116931,409.0000000000,525.0000000000,472.0000000000,407.0000000000,71.0000000000,2.0000000000
1717675116931,407.0000000000,519.0000000000,468.0000000000,403.0000000000,71.0000000000,2.0000000000
1717675116932,403.0000000000,515.0000000000,463.0000000000,399.0000000000,71.0000000000,1.0000000000
1717675116933,399.0000000000,512.0000000000,460.0000000000,396.0000000000,71.0000000000,1.0000000000
1717675116962,396.0000000000,508.0000000000,455.0000000000,392.0000000000,70.0000000000,1.0000000000
1717675116963,393.0000000000,503.0000000000,454.0000000000,390.0000000000,70.0000000000,1.0000000000
1717675116963,390.0000000000,560.0000000000,449.0000000000,386.0000000000,70.0000000000,2.0000000000
1717675116963,387.0000000000,556.0000000000,484.0000000000,384.0000000000,69.0000000000,1.0000000000
1717675116963,384.0000000000,550.0000000000,480.0000000000,381.0000000000,68.0000000000,1.0000000000
1717675116964,382.0000000000,544.0000000000,476.0000000000,377.0000000000,68.0000000000,2.0000000000
1717675116964,379.0000000000,540.0000000000,472.0000000000,376.0000000000,78.0000000000,2.0000000000
1717675116964,376.0000000000,568.0000000000,467.0000000000,372.0000000000,155.0000000000,1.0000000000
1717675116964,373.0000000000,561.0000000000,479.0000000000,369.0000000000,152.0000000000,1.0000000000
1717675116965,370.0000000000,556.0000000000,475.0000000000,367.0000000000,152.0000000000,1.0000000000
1717675116965,368.0000000000,550.0000000000,470.0000000000,364.0000000000,150.0000000000,2.0000000000
1717675116966,365.0000000000,543.0000000000,466.0000000000,361.0000000000,149.0000000000,1.0000000000
1717675116966,362.0000000000,539.0000000000,463.0000000000,359.0000000000,147.0000000000,2.0000000000
1717675116966,359.0000000000,534.0000000000,459.0000000000,355.0000000000,147.0000000000,1.0000000000
1717675116966,356.0000000000,528.0000000000,455.0000000000,353.0000000000,146.0000000000,2.0000000000
1717675116967,354.0000000000,524.0000000000,451.0000000000,351.0000000000,144.0000000000,1.0000000000
1717675116967,352.0000000000,519.0000000000,448.0000000000,348.0000000000,143.0000000000,1.0000000000
1717675116984,350.0000000000,517.0000000000,444.0000000000,345.0000000000,143.0000000000,1.0000000000
1717675116984,347.0000000000,512.0000000000,440.0000000000,343.0000000000,142.0000000000,1.0000000000
1717675116985,344.0000000000,591.0000000000,435.0000000000,340.0000000000,141.0000000000,1.0000000000
1717675116985,342.0000000000,608.0000000000,432.0000000000,338.0000000000,140.0000000000,1.0000000000
1717675116985,339.0000000000,600.0000000000,429.0000000000,335.0000000000,139.0000000000,1.0000000000
1717675116985,337.0000000000,594.0000000000,425.0000000000,333.0000000000,139.0000000000,1.0000000000
1717675116985,335.0000000000,588.0000000000,422.0000000000,331.0000000000,137.0000000000,1.0000000000
1717675116985,333.0000000000,582.0000000000,419.0000000000,329.0000000000,135.0000000000,1.0000000000
1717675116985,331.0000000000,601.0000000000,415.0000000000,327.0000000000,135.0000000000,1.0000000000
1717675116986,415.0000000000,595.0000000000,413.0000000000,323.0000000000,135.0000000000,1.0000000000
1717675117003,411.0000000000,588.0000000000,409.0000000000,321.0000000000,134.0000000000,1.0000000000
1717675117004,407.0000000000,582.0000000000,407.0000000000,319.0000000000,134.0000000000,1.0000000000
1717675117004,403.0000000000,575.0000000000,403.0000000000,316.0000000000,132.0000000000,1.0000000000
1717675117004,399.0000000000,569.0000000000,401.0000000000,315.0000000000,131.0000000000,1.0000000000
1717675117004,396.0000000000,564.0000000000,398.0000000000,312.0000000000,130.0000000000,1.0000000000
1717675117004,391.0000000000,582.0000000000,395.0000000000,311.0000000000,129.0000000000,2.0000000000
1717675117004,388.0000000000,668.0000000000,391.0000000000,308.0000000000,128.0000000000,2.0000000000
1717675117004,385.0000000000,662.0000000000,389.0000000000,307.0000000000,127.0000000000,2.0000000000
1717675117064,383.0000000000,654.0000000000,386.0000000000,304.0000000000,127.0000000000,3.0000000000
1717675117065,380.0000000000,647.0000000000,384.0000000000,303.0000000000,126.0000000000,2.0000000000
1717675117066,376.0000000000,639.0000000000,380.0000000000,412.0000000000,126.0000000000,2.0000000000
1717675117066,374.0000000000,633.0000000000,423.0000000000,406.0000000000,125.0000000000,2.0000000000
1717675117067,371.0000000000,625.0000000000,419.0000000000,402.0000000000,124.0000000000,2.0000000000
1717675117067,370.0000000000,620.0000000000,415.0000000000,398.0000000000,123.0000000000,2.0000000000
1717675117067,367.0000000000,612.0000000000,412.0000000000,395.0000000000,123.0000000000,2.0000000000
1717675117068,364.0000000000,606.0000000000,408.0000000000,391.0000000000,121.0000000000,3.0000000000
1717675117068,361.0000000000,600.0000000000,507.0000000000,387.0000000000,121.0000000000,2.0000000000
1717675117068,359.0000000000,668.0000000000,500.0000000000,384.0000000000,120.0000000000,2.0000000000
1717675117068,491.0000000000,659.0000000000,596.0000000000,382.0000000000,120.0000000000,2.0000000000
1717675117069,483.0000000000,652.0000000000,586.0000000000,379.0000000000,119.0000000000,2.0000000000
1717675117069,479.0000000000,645.0000000000,579.0000000000,376.0000000000,118.0000000000,2.0000000000
1717675117069,473.0000000000,639.0000000000,574.0000000000,372.0000000000,117.0000000000,2.0000000000
1717675117069,469.0000000000,632.0000000000,568.0000000000,370.0000000000,116.0000000000,2.0000000000
1717675117070,464.0000000000,625.0000000000,562.0000000000,367.0000000000,115.0000000000,2.0000000000
1717675117070,486.0000000000,619.0000000000,556.0000000000,364.0000000000,115.0000000000,1.0000000000
1717675117070,514.0000000000,612.0000000000,551.0000000000,361.0000000000,115.0000000000,1.0000000000
1717675117070,508.0000000000,606.0000000000,546.0000000000,359.0000000000,114.0000000000,1.0000000000
1717675117070,504.0000000000,600.0000000000,541.0000000000,355.0000000000,113.0000000000,1.0000000000
1717675117070,499.0000000000,594.0000000000,537.0000000000,353.0000000000,112.0000000000,1.0000000000
1717675117070,493.0000000000,588.0000000000,532.0000000000,351.0000000000,112.0000000000,2.0000000000
1717675117071,489.0000000000,583.0000000000,527.0000000000,348.0000000000,111.0000000000,1.0000000000
1717675117071,484.0000000000,577.0000000000,523.0000000000,345.0000000000,110.0000000000,1.0000000000
1717675117071,480.0000000000,572.0000000000,518.0000000000,343.0000000000,110.0000000000,1.0000000000
1717675117071,476.0000000000,591.0000000000,514.0000000000,340.0000000000,109.0000000000,1.0000000000
1717675117072,608.0000000000,583.0000000000,509.0000000000,337.0000000000,108.0000000000,2.0000000000
1717675117072,600.0000000000,580.0000000000,635.0000000000,335.0000000000,108.0000000000,1.0000000000
1717675117072,593.0000000000,607.0000000000,706.0000000000,333.0000000000,107.0000000000,1.0000000000
1717675117072,587.0000000000,624.0000000000,697.0000000000,331.0000000000,107.0000000000,1.0000000000
1717675117073,580.0000000000,617.0000000000,689.0000000000,378.0000000000,105.0000000000,1.0000000000
1717675117073,574.0000000000,610.0000000000,681.0000000000,375.0000000000,105.0000000000,1.0000000000
1717675117073,568.0000000000,604.0000000000,674.0000000000,371.0000000000,103.0000000000,1.0000000000
1717675117073,563.0000000000,598.0000000000,667.0000000000,368.0000000000,103.0000000000,1.0000000000
1717675117073,557.0000000000,591.0000000000,660.0000000000,364.0000000000,103.0000000000,1.0000000000
1717675117074,551.0000000000,584.0000000000,654.0000000000,361.0000000000,103.0000000000,1.0000000000
1717675117114,545.0000000000,579.0000000000,655.0000000000,359.0000000000,102.0000000000,1.0000000000
1717675117115,540.0000000000,573.0000000000,747.0000000000,355.0000000000,101.0000000000,1.0000000000
1717675117116,536.0000000000,628.0000000000,737.0000000000,353.0000000000,101.0000000000,1.0000000000
1717675117116,530.0000000000,699.0000000000,728.0000000000,350.0000000000,99.0000000000,1.0000000000
1717675117116,526.0000000000,692.0000000000,719.0000000000,348.0000000000,99.0000000000,1.0000000000
1717675117116,520.0000000000,684.0000000000,711.0000000000,345.0000000000,99.0000000000,1.0000000000
1717675117116,516.0000000000,675.0000000000,704.0000000000,343.0000000000,99.0000000000,1.0000000000
1717675117116,512.0000000000,668.0000000000,696.0000000000,339.0000000000,98.0000000000,1.0000000000
1717675117117,508.0000000000,663.0000000000,688.0000000000,338.0000000000,97.0000000000,1.0000000000
1717675117117,503.0000000000,655.0000000000,681.0000000000,335.0000000000,97.0000000000,1.0000000000
1717675117117,499.0000000000,647.0000000000,676.0000000000,333.0000000000,96.0000000000,1.0000000000
1717675117117,494.0000000000,641.0000000000,668.0000000000,331.0000000000,96.0000000000,1.0000000000
1717675117118,490.0000000000,636.0000000000,662.0000000000,327.0000000000,95.0000000000,1.0000000000
1717675117118,486.0000000000,630.0000000000,655.0000000000,327.0000000000,95.0000000000,1.0000000000
1717675117118,482.0000000000,623.0000000000,649.0000000000,323.0000000000,94.0000000000,1.0000000000
1717675117118,478.0000000000,615.0000000000,643.0000000000,321.0000000000,94.0000000000,1.0000000000
1717675117119,475.0000000000,612.0000000000,636.0000000000,319.0000000000,93.0000000000,1.0000000000
1717675117119,471.0000000000,606.0000000000,630.0000000000,318.0000000000,93.0000000000,1.0000000000
1717675117119,467.0000000000,600.0000000000,625.0000000000,316.0000000000,92.0000000000,1.0000000000
1717675117119,463.0000000000,593.0000000000,620.0000000000,313.0000000000,92.0000000000,1.0000000000
1717675117120,460.0000000000,588.0000000000,614.0000000000,312.0000000000,91.0000000000,1.0000000000
1717675117120,455.0000000000,583.0000000000,608.0000000000,309.0000000000,91.0000000000,0.0000000000
1717675117120,451.0000000000,578.0000000000,601.0000000000,307.0000000000,89.0000000000,1.0000000000
1717675117121,448.0000000000,572.0000000000,597.0000000000,305.0000000000,89.0000000000,1.0000000000
1717675117121,445.0000000000,568.0000000000,591.0000000000,303.0000000000,89.0000000000,1.0000000000
1717675117121,441.0000000000,563.0000000000,586.0000000000,301.0000000000,88.0000000000,1.0000000000
1717675117149,438.0000000000,558.0000000000,580.0000000000,299.0000000000,88.0000000000,1.0000000000
1717675117152,435.0000000000,553.0000000000,577.0000000000,297.0000000000,88.0000000000,1.0000000000
1717675117153,497.0000000000,547.0000000000,572.0000000000,295.0000000000,88.0000000000,1.0000000000
1717675117154,492.0000000000,651.0000000000,567.0000000000,294.0000000000,87.0000000000,0.0000000000
1717675117154,487.0000000000,642.0000000000,561.0000000000,291.0000000000,86.0000000000,1.0000000000
1717675117155,482.0000000000,635.0000000000,558.0000000000,289.0000000000,86.0000000000,1.0000000000
1717675117155,479.0000000000,627.0000000000,552.0000000000,287.0000000000,86.0000000000,1.0000000000
1717675117156,473.0000000000,622.0000000000,547.0000000000,286.0000000000,85.0000000000,1.0000000000
1717675117157,478.0000000000,615.0000000000,543.0000000000,284.0000000000,84.0000000000,0.0000000000
1717675117158,681.0000000000,706.0000000000,539.0000000000,282.0000000000,83.0000000000,1.0000000000
1717675117159,671.0000000000,697.0000000000,576.0000000000,280.0000000000,83.0000000000,1.0000000000
1717675117159,663.0000000000,691.0000000000,570.0000000000,280.0000000000,83.0000000000,1.0000000000
1717675117160,655.0000000000,683.0000000000,564.0000000000,278.0000000000,82.0000000000,1.0000000000
1717675117161,647.0000000000,675.0000000000,560.0000000000,275.0000000000,81.0000000000,1.0000000000
1717675117161,639.0000000000,668.0000000000,555.0000000000,273.0000000000,81.0000000000,1.0000000000
1717675117162,635.0000000000,662.0000000000,548.0000000000,272.0000000000,81.0000000000,0.0000000000
1717675117163,627.0000000000,654.0000000000,543.0000000000,271.0000000000,80.0000000000,1.0000000000
1717675117163,680.0000000000,647.0000000000,540.0000000000,269.0000000000,80.0000000000,1.0000000000
1717675117164,745.0000000000,639.0000000000,536.0000000000,267.0000000000,79.0000000000,3.0000000000
1717675117165,735.0000000000,636.0000000000,530.0000000000,265.0000000000,79.0000000000,3.0000000000
1717675117166,726.0000000000,628.0000000000,526.0000000000,263.0000000000,79.0000000000,3.0000000000
1717675117166,717.0000000000,622.0000000000,523.0000000000,262.0000000000,78.0000000000,3.0000000000
1717675117167,709.0000000000,615.0000000000,518.0000000000,261.0000000000,109.0000000000,3.0000000000
1717675117167,701.0000000000,609.0000000000,513.0000000000,259.0000000000,159.0000000000,3.0000000000
1717675117200,692.0000000000,604.0000000000,510.0000000000,292.0000000000,157.0000000000,3.0000000000
1717675117200,684.0000000000,598.0000000000,505.0000000000,315.0000000000,156.0000000000,3.0000000000
1717675117201,676.0000000000,593.0000000000,624.0000000000,312.0000000000,154.0000000000,3.0000000000
1717675117201,668.0000000000,587.0000000000,615.0000000000,310.0000000000,153.0000000000,3.0000000000
1717675117201,662.0000000000,582.0000000000,609.0000000000,307.0000000000,152.0000000000,3.0000000000
1717675117201,654.0000000000,575.0000000000,604.0000000000,304.0000000000,151.0000000000,3.0000000000
1717675117201,647.0000000000,571.0000000000,598.0000000000,302.0000000000,150.0000000000,3.0000000000
1717675117201,639.0000000000,566.0000000000,591.0000000000,308.0000000000,148.0000000000,3.0000000000
1717675117201,635.0000000000,560.0000000000,585.0000000000,305.0000000000,147.0000000000,3.0000000000
1717675117202,628.0000000000,555.0000000000,580.0000000000,303.0000000000,147.0000000000,3.0000000000
1717675117202,622.0000000000,550.0000000000,575.0000000000,300.0000000000,146.0000000000,2.0000000000
1717675117202,615.0000000000,544.0000000000,569.0000000000,299.0000000000,145.0000000000,3.0000000000
1717675117202,609.0000000000,540.0000000000,563.0000000000,295.0000000000,143.0000000000,3.0000000000
1717675117202,603.0000000000,535.0000000000,559.0000000000,294.0000000000,143.0000000000,2.0000000000
1717675117202,597.0000000000,530.0000000000,553.0000000000,291.0000000000,142.0000000000,2.0000000000
1717675117203,591.0000000000,526.0000000000,548.0000000000,289.0000000000,141.0000000000,3.0000000000
1717675117203,585.0000000000,521.0000000000,543.0000000000,287.0000000000,140.0000000000,2.0000000000
1717675117203,579.0000000000,518.0000000000,537.0000000000,286.0000000000,140.0000000000,3.0000000000
1717675117203,574.0000000000,513.0000000000,533.0000000000,284.0000000000,152.0000000000,2.0000000000
1717675117229,568.0000000000,509.0000000000,527.0000000000,281.0000000000,152.0000000000,3.0000000000
1717675117233,563.0000000000,504.0000000000,524.0000000000,280.0000000000,150.0000000000,3.0000000000
1717675117233,558.0000000000,500.0000000000,519.0000000000,277.0000000000,148.0000000000,3.0000000000
1717675117234,552.0000000000,496.0000000000,515.0000000000,275.0000000000,148.0000000000,3.0000000000
1717675117235,547.0000000000,492.0000000000,511.0000000000,273.0000000000,147.0000000000,2.0000000000
1717675117235,543.0000000000,487.0000000000,507.0000000000,271.0000000000,145.0000000000,4.0000000000
1717675117236,537.0000000000,483.0000000000,503.0000000000,270.0000000000,145.0000000000,4.0000000000
1717675117236,533.0000000000,480.0000000000,498.0000000000,352.0000000000,143.0000000000,3.0000000000
1717675117237,527.0000000000,488.0000000000,494.0000000000,348.0000000000,143.0000000000,3.0000000000
1717675117237,524.0000000000,643.0000000000,490.0000000000,345.0000000000,142.0000000000,4.0000000000
1717675117237,519.0000000000,636.0000000000,487.0000000000,343.0000000000,142.0000000000,3.0000000000
1717675117237,515.0000000000,628.0000000000,483.0000000000,340.0000000000,140.0000000000,4.0000000000
1717675117238,510.0000000000,623.0000000000,480.0000000000,337.0000000000,139.0000000000,4.0000000000
1717675117238,505.0000000000,615.0000000000,476.0000000000,335.0000000000,139.0000000000,4.0000000000
1717675117238,502.0000000000,609.0000000000,473.0000000000,332.0000000000,137.0000000000,3.0000000000
1717675117239,496.0000000000,603.0000000000,470.0000000000,329.0000000000,135.0000000000,3.0000000000
1717675117239,493.0000000000,596.0000000000,466.0000000000,327.0000000000,135.0000000000,4.0000000000
1717675117239,487.0000000000,590.0000000000,463.0000000000,323.0000000000,135.0000000000,3.0000000000
1717675117240,484.0000000000,584.0000000000,460.0000000000,321.0000000000,134.0000000000,3.0000000000
1717675117274,480.0000000000,579.0000000000,456.0000000000,319.0000000000,134.0000000000,3.0000000000
1717675117275,476.0000000000,572.0000000000,452.0000000000,316.0000000000,132.0000000000,3.0000000000
1717675117275,472.0000000000,568.0000000000,450.0000000000,314.0000000000,131.0000000000,3.0000000000
1717675117275,469.0000000000,561.0000000000,447.0000000000,312.0000000000,131.0000000000,3.0000000000
1717675117275,465.0000000000,556.0000000000,444.0000000000,310.0000000000,130.0000000000,3.0000000000
1717675117275,462.0000000000,551.0000000000,440.0000000000,307.0000000000,129.0000000000,3.0000000000
1717675117275,457.0000000000,545.0000000000,436.0000000000,305.0000000000,127.0000000000,3.0000000000
1717675117276,454.0000000000,542.0000000000,433.0000000000,304.0000000000,127.0000000000,3.0000000000
1717675117276,451.0000000000,537.0000000000,430.0000000000,301.0000000000,127.0000000000,3.0000000000
1717675117276,448.0000000000,592.0000000000,427.0000000000,299.0000000000,126.0000000000,3.0000000000
1717675117276,444.0000000000,587.0000000000,499.0000000000,297.0000000000,124.0000000000,3.0000000000
1717675117276,440.0000000000,579.0000000000,512.0000000000,295.0000000000,124.0000000000,3.0000000000
1717675117276,436.0000000000,574.0000000000,507.0000000000,292.0000000000,124.0000000000,3.0000000000
1717675117276,433.0000000000,568.0000000000,502.0000000000,291.0000000000,123.0000000000,3.0000000000
1717675117276,430.0000000000,562.0000000000,498.0000000000,288.0000000000,122.0000000000,3.0000000000
1717675117277,427.0000000000,556.0000000000,494.0000000000,286.0000000000,121.0000000000,3.0000000000
1717675117277,423.0000000000,551.0000000000,489.0000000000,284.0000000000,120.0000000000,3.0000000000
1717675117277,420.0000000000,545.0000000000,484.0000000000,283.0000000000,120.0000000000,3.0000000000
1717675117277,417.0000000000,540.0000000000,480.0000000000,280.0000000000,120.0000000000,3.0000000000
1717675117295,414.0000000000,536.0000000000,476.0000000000,279.0000000000,118.0000000000,3.0000000000
1717675117296,411.0000000000,530.0000000000,472.0000000000,318.0000000000,118.0000000000,3.0000000000
1717675117297,408.0000000000,527.0000000000,467.0000000000,316.0000000000,117.0000000000,3.0000000000
1717675117297,454.0000000000,523.0000000000,463.0000000000,313.0000000000,115.0000000000,3.0000000000
1717675117297,503.0000000000,518.0000000000,460.0000000000,311.0000000000,115.0000000000,3.0000000000
1717675117297,497.0000000000,513.0000000000,455.0000000000,308.0000000000,115.0000000000,3.0000000000
1717675117298,492.0000000000,508.0000000000,452.0000000000,305.0000000000,114.0000000000,3.0000000000
1717675117298,487.0000000000,504.0000000000,448.0000000000,303.0000000000,113.0000000000,3.0000000000
1717675117298,483.0000000000,499.0000000000,444.0000000000,300.0000000000,112.0000000000,2.0000000000
1717675117299,478.0000000000,555.0000000000,441.0000000000,298.0000000000,112.0000000000,3.0000000000
1717675117333,473.0000000000,549.0000000000,438.0000000000,295.0000000000,111.0000000000,3.0000000000
1717675117334,470.0000000000,543.0000000000,435.0000000000,294.0000000000,111.0000000000,3.0000000000
1717675117334,465.0000000000,537.0000000000,432.0000000000,291.0000000000,110.0000000000,3.0000000000
1717675117334,461.0000000000,532.0000000000,430.0000000000,289.0000000000,110.0000000000,3.0000000000
1717675117334,455.0000000000,527.0000000000,452.0000000000,287.0000000000,109.0000000000,3.0000000000
1717675117334,452.0000000000,523.0000000000,448.0000000000,285.0000000000,108.0000000000,3.0000000000
1717675117334,449.0000000000,519.0000000000,444.0000000000,284.0000000000,108.0000000000,3.0000000000
1717675117335,444.0000000000,513.0000000000,440.0000000000,281.0000000000,107.0000000000,2.0000000000
1717675117335,441.0000000000,509.0000000000,436.0000000000,302.0000000000,105.0000000000,3.0000000000
1717675117335,436.0000000000,504.0000000000,433.0000000000,300.0000000000,105.0000000000,3.0000000000
1717675117335,595.0000000000,499.0000000000,510.0000000000,295.0000000000,105.0000000000,3.0000000000
1717675117335,588.0000000000,496.0000000000,504.0000000000,294.0000000000,103.0000000000,2.0000000000
1717675117335,580.0000000000,491.0000000000,500.0000000000,291.0000000000,103.0000000000,3.0000000000
1717675117336,574.0000000000,557.0000000000,496.0000000000,289.0000000000,103.0000000000,2.0000000000
1717675117336,568.0000000000,551.0000000000,492.0000000000,287.0000000000,103.0000000000,2.0000000000
1717675117336,562.0000000000,544.0000000000,487.0000000000,285.0000000000,103.0000000000,2.0000000000
1717675117336,556.0000000000,540.0000000000,483.0000000000,283.0000000000,102.0000000000,2.0000000000
1717675117336,560.0000000000,534.0000000000,479.0000000000,281.0000000000,101.0000000000,2.0000000000
1717675117336,554.0000000000,528.0000000000,475.0000000000,279.0000000000,101.0000000000,2.0000000000
1717675117337,548.0000000000,524.0000000000,470.0000000000,276.0000000000,99.0000000000,2.0000000000
1717675117337,543.0000000000,521.0000000000,465.0000000000,275.0000000000,99.0000000000,2.0000000000
1717675117354,537.0000000000,518.0000000000,462.0000000000,273.0000000000,99.0000000000,2.0000000000
1717675117356,532.0000000000,512.0000000000,459.0000000000,271.0000000000,99.0000000000,2.0000000000
1717675117357,528.0000000000,508.0000000000,455.0000000000,270.0000000000,97.0000000000,2.0000000000
1717675117358,524.0000000000,504.0000000000,451.0000000000,268.0000000000,142.0000000000,2.0000000000
1717675117358,519.0000000000,499.0000000000,448.0000000000,266.0000000000,140.0000000000,2.0000000000
1717675117359,513.0000000000,495.0000000000,444.0000000000,289.0000000000,139.0000000000,2.0000000000
1717675117359,508.0000000000,491.0000000000,440.0000000000,287.0000000000,137.0000000000,1.0000000000
1717675117360,504.0000000000,486.0000000000,436.0000000000,285.0000000000,136.0000000000,2.0000000000
1717675117360,499.0000000000,481.0000000000,433.0000000000,283.0000000000,135.0000000000,2.0000000000
1717675117361,495.0000000000,478.0000000000,430.0000000000,280.0000000000,135.0000000000,1.0000000000
1717675117361,491.0000000000,537.0000000000,427.0000000000,278.0000000000,134.0000000000,2.0000000000
1717675117361,486.0000000000,531.0000000000,423.0000000000,275.0000000000,133.0000000000,2.0000000000
1717675117362,482.0000000000,526.0000000000,420.0000000000,273.0000000000,132.0000000000,1.0000000000
1717675117389,478.0000000000,520.0000000000,417.0000000000,271.0000000000,131.0000000000,1.0000000000
1717675117391,473.0000000000,515.0000000000,414.0000000000,270.0000000000,131.0000000000,1.0000000000
1717675117392,470.0000000000,511.0000000000,412.0000000000,268.0000000000,129.0000000000,1.0000000000
1717675117393,465.0000000000,507.0000000000,408.0000000000,267.0000000000,129.0000000000,2.0000000000
1717675117393,462.0000000000,502.0000000000,406.0000000000,263.0000000000,127.0000000000,1.0000000000
1717675117394,457.0000000000,497.0000000000,403.0000000000,263.0000000000,127.0000000000,1.0000000000
1717675117395,454.0000000000,492.0000000000,399.0000000000,260.0000000000,126.0000000000,1.0000000000
1717675117395,449.0000000000,487.0000000000,397.0000000000,259.0000000000,126.0000000000,1.0000000000
1717675117396,446.0000000000,483.0000000000,395.0000000000,257.0000000000,124.0000000000,1.0000000000
1717675117397,443.0000000000,480.0000000000,391.0000000000,255.0000000000,124.0000000000,1.0000000000
1717675117397,440.0000000000,476.0000000000,390.0000000000,255.0000000000,123.0000000000,1.0000000000
1717675117398,435.0000000000,472.0000000000,387.0000000000,252.0000000000,122.0000000000,1.0000000000
1717675117398,432.0000000000,467.0000000000,384.0000000000,251.0000000000,121.0000000000,1.0000000000
1717675117398,428.0000000000,463.0000000000,382.0000000000,249.0000000000,120.0000000000,1.0000000000
1717675117399,424.0000000000,460.0000000000,387.0000000000,248.0000000000,120.0000000000,1.0000000000
1717675117399,422.0000000000,455.0000000000,462.0000000000,246.0000000000,119.0000000000,1.0000000000
1717675117399,419.0000000000,453.0000000000,457.0000000000,244.0000000000,119.0000000000,1.0000000000
1717675117399,415.0000000000,451.0000000000,452.0000000000,243.0000000000,118.0000000000,1.0000000000
1717675117399,412.0000000000,447.0000000000,448.0000000000,242.0000000000,117.0000000000,1.0000000000
1717675117414,408.0000000000,444.0000000000,491.0000000000,240.0000000000,116.0000000000,1.0000000000
1717675117415,406.0000000000,497.0000000000,491.0000000000,239.0000000000,115.0000000000,1.0000000000
1717675117415,402.0000000000,492.0000000000,486.0000000000,238.0000000000,115.0000000000,1.0000000000
1717675117415,399.0000000000,487.0000000000,481.0000000000,236.0000000000,113.0000000000,1.0000000000
1717675117416,396.0000000000,483.0000000000,477.0000000000,235.0000000000,113.0000000000,1.0000000000
1717675117416,393.0000000000,479.0000000000,473.0000000000,233.0000000000,112.0000000000,1.0000000000
1717675117416,391.0000000000,474.0000000000,470.0000000000,233.0000000000,112.0000000000,1.0000000000
1717675117416,387.0000000000,470.0000000000,465.0000000000,231.0000000000,112.0000000000,1.0000000000
1717675117431,385.0000000000,465.0000000000,461.0000000000,231.0000000000,110.0000000000,1.0000000000
1717675117434,383.0000000000,461.0000000000,457.0000000000,229.0000000000,110.0000000000,1.0000000000
1717675117434,380.0000000000,456.0000000000,453.0000000000,227.0000000000,109.0000000000,1.0000000000
1717675117434,377.0000000000,487.0000000000,449.0000000000,226.0000000000,108.0000000000,1.0000000000
1717675117435,375.0000000000,483.0000000000,446.0000000000,235.0000000000,108.0000000000,1.0000000000
1717675117435,371.0000000000,479.0000000000,441.0000000000,232.0000000000,108.0000000000,1.0000000000
1717675117435,369.0000000000,516.0000000000,507.0000000000,231.0000000000,107.0000000000,1.0000000000
1717675117435,367.0000000000,560.0000000000,500.0000000000,230.0000000000,106.0000000000,1.0000000000
1717675117435,364.0000000000,555.0000000000,496.0000000000,227.0000000000,105.0000000000,1.0000000000
1717675117436,361.0000000000,548.0000000000,491.0000000000,226.0000000000,105.0000000000,1.0000000000
1717675117436,359.0000000000,543.0000000000,487.0000000000,224.0000000000,103.0000000000,1.0000000000
1717675117456,356.0000000000,537.0000000000,483.0000000000,223.0000000000,103.0000000000,1.0000000000
1717675117457,355.0000000000,532.0000000000,479.0000000000,222.0000000000,103.0000000000,1.0000000000
1717675117457,355.0000000000,527.0000000000,475.0000000000,221.0000000000,103.0000000000,0.0000000000
1717675117457,547.0000000000,522.0000000000,471.0000000000,220.0000000000,103.0000000000,1.0000000000
1717675117458,537.0000000000,517.0000000000,466.0000000000,217.0000000000,102.0000000000,1.0000000000
1717675117458,532.0000000000,512.0000000000,462.0000000000,216.0000000000,102.0000000000,1.0000000000
1717675117458,527.0000000000,508.0000000000,515.0000000000,216.0000000000,100.0000000000,1.0000000000
1717675117458,521.0000000000,507.0000000000,560.0000000000,215.0000000000,100.0000000000,0.0000000000
1717675117458,515.0000000000,502.0000000000,553.0000000000,213.0000000000,99.0000000000,1.0000000000
1717675117458,511.0000000000,497.0000000000,548.0000000000,212.0000000000,99.0000000000,1.0000000000
1717675117472,506.0000000000,493.0000000000,543.0000000000,210.0000000000,99.0000000000,1.0000000000
1717675117472,502.0000000000,488.0000000000,539.0000000000,209.0000000000,97.0000000000,0.0000000000
1717675117472,497.0000000000,527.0000000000,534.0000000000,208.0000000000,97.0000000000,1.0000000000
1717675117473,493.0000000000,588.0000000000,611.0000000000,207.0000000000,96.0000000000,1.0000000000
1717675117473,487.0000000000,581.0000000000,606.0000000000,257.0000000000,96.0000000000,0.0000000000
1717675117473,483.0000000000,574.0000000000,599.0000000000,254.0000000000,96.0000000000,0.0000000000
1717675117473,480.0000000000,569.0000000000,591.0000000000,252.0000000000,96.0000000000,1.0000000000
1717675117473,476.0000000000,563.0000000000,586.0000000000,251.0000000000,95.0000000000,1.0000000000
1717675117474,472.0000000000,558.0000000000,582.0000000000,248.0000000000,94.0000000000,1.0000000000
1717675117487,467.0000000000,551.0000000000,575.0000000000,247.0000000000,94.0000000000,0.0000000000
1717675117488,463.0000000000,547.0000000000,569.0000000000,244.0000000000,93.0000000000,1.0000000000
1717675117488,460.0000000000,543.0000000000,564.0000000000,243.0000000000,92.0000000000,0.0000000000
1717675117488,455.0000000000,537.0000000000,559.0000000000,241.0000000000,92.0000000000,1.0000000000
1717675117488,451.0000000000,532.0000000000,556.0000000000,240.0000000000,92.0000000000,0.0000000000
1717675117489,449.0000000000,527.0000000000,550.0000000000,238.0000000000,91.0000000000,1.0000000000
1717675117489,445.0000000000,553.0000000000,544.0000000000,236.0000000000,91.0000000000,0.0000000000
1717675117489,441.0000000000,547.0000000000,540.0000000000,235.0000000000,90.0000000000,0.0000000000
1717675117489,438.0000000000,542.0000000000,536.0000000000,304.0000000000,89.0000000000,0.0000000000
1717675117503,434.0000000000,536.0000000000,531.0000000000,301.0000000000,89.0000000000,0.0000000000
1717675117504,431.0000000000,531.0000000000,526.0000000000,299.0000000000,88.0000000000,0.0000000000
1717675117504,428.0000000000,527.0000000000,521.0000000000,295.0000000000,88.0000000000,0.0000000000
1717675117504,423.0000000000,521.0000000000,518.0000000000,294.0000000000,88.0000000000,0.0000000000
1717675117504,420.0000000000,517.0000000000,513.0000000000,291.0000000000,87.0000000000,0.0000000000
1717675117504,417.0000000000,513.0000000000,509.0000000000,289.0000000000,86.0000000000,0.0000000000
1717675117518,414.0000000000,508.0000000000,504.0000000000,287.0000000000,86.0000000000,0.0000000000
1717675117520,412.0000000000,504.0000000000,502.0000000000,285.0000000000,86.0000000000,0.0000000000
1717675117520,408.0000000000,528.0000000000,497.0000000000,284.0000000000,85.0000000000,0.0000000000
1717675117520,404.0000000000,524.0000000000,493.0000000000,281.0000000000,84.0000000000,0.0000000000
1717675117521,484.0000000000,519.0000000000,489.0000000000,280.0000000000,84.0000000000,0.0000000000
1717675117521,591.0000000000,540.0000000000,486.0000000000,277.0000000000,84.0000000000,0.0000000000
1717675117521,583.0000000000,534.0000000000,481.0000000000,275.0000000000,83.0000000000,0.0000000000
1717675117521,577.0000000000,529.0000000000,478.0000000000,273.0000000000,83.0000000000,0.0000000000
1717675117522,571.0000000000,524.0000000000,473.0000000000,271.0000000000,83.0000000000,0.0000000000
1717675117522,564.0000000000,519.0000000000,471.0000000000,270.0000000000,82.0000000000,0.0000000000
1717675117522,560.0000000000,514.0000000000,467.0000000000,268.0000000000,82.0000000000,0.0000000000
1717675117551,555.0000000000,550.0000000000,475.0000000000,267.0000000000,81.0000000000,0.0000000000
1717675117551,550.0000000000,545.0000000000,636.0000000000,264.0000000000,80.0000000000,0.0000000000
1717675117551,543.0000000000,539.0000000000,627.0000000000,263.0000000000,80.0000000000,0.0000000000
1717675117552,539.0000000000,534.0000000000,622.0000000000,260.0000000000,79.0000000000,0.0000000000
1717675117552,534.0000000000,528.0000000000,615.0000000000,259.0000000000,79.0000000000,0.0000000000
1717675117552,528.0000000000,524.0000000000,608.0000000000,257.0000000000,79.0000000000,0.0000000000
1717675117552,524.0000000000,519.0000000000,602.0000000000,255.0000000000,78.0000000000,0.0000000000
1717675117552,519.0000000000,513.0000000000,598.0000000000,254.0000000000,79.0000000000,0.0000000000
1717675117552,515.0000000000,510.0000000000,591.0000000000,252.0000000000,78.0000000000,0.0000000000
1717675117552,510.0000000000,505.0000000000,585.0000000000,251.0000000000,77.0000000000,0.0000000000
1717675117552,505.0000000000,502.0000000000,579.0000000000,249.0000000000,77.0000000000,0.0000000000
1717675117552,500.0000000000,565.0000000000,575.0000000000,248.0000000000,76.0000000000,0.0000000000
1717675117552,496.0000000000,559.0000000000,570.0000000000,246.0000000000,76.0000000000,0.0000000000
1717675117552,492.0000000000,555.0000000000,564.0000000000,244.0000000000,76.0000000000,0.0000000000
1717675117553,487.0000000000,548.0000000000,560.0000000000,243.0000000000,75.0000000000,0.0000000000
1717675117570,485.0000000000,543.0000000000,556.0000000000,241.0000000000,75.0000000000,0.0000000000
1717675117571,514.0000000000,537.0000000000,550.0000000000,239.0000000000,74.0000000000,0.0000000000
1717675117571,509.0000000000,534.0000000000,545.0000000000,238.0000000000,73.0000000000,0.0000000000
1717675117571,504.0000000000,527.0000000000,540.0000000000,237.0000000000,73.0000000000,0.0000000000
1717675117571,499.0000000000,523.0000000000,536.0000000000,235.0000000000,73.0000000000,0.0000000000
1717675117571,495.0000000000,518.0000000000,531.0000000000,233.0000000000,72.0000000000,0.0000000000
1717675117571,490.0000000000,514.0000000000,527.0000000000,231.0000000000,71.0000000000,0.0000000000
1717675117571,486.0000000000,510.0000000000,522.0000000000,231.0000000000,71.0000000000,0.0000000000
1717675117571,481.0000000000,504.0000000000,519.0000000000,230.0000000000,71.0000000000,0.0000000000
1717675117571,478.0000000000,500.0000000000,515.0000000000,227.0000000000,71.0000000000,0.0000000000
1717675117572,473.0000000000,497.0000000000,510.0000000000,226.0000000000,71.0000000000,0.0000000000
