timestamp,Channel 1,Channel 2,Channel 3,Channel 4,Channel 5,Channel 6
1717675105203,7.0000000000,0.0000000000,0.0000000000,107.0000000000,24.0000000000,2.0000000000
1717675105203,8.0000000000,0.0000000000,0.0000000000,106.0000000000,24.0000000000,1.0000000000
1717675105203,7.0000000000,0.0000000000,0.0000000000,105.0000000000,24.0000000000,2.0000000000
1717675105203,7.0000000000,0.0000000000,0.0000000000,105.0000000000,24.0000000000,2.0000000000
1717675105203,7.0000000000,0.0000000000,0.0000000000,104.0000000000,24.0000000000,1.0000000000
1717675105203,7.0000000000,0.0000000000,0.0000000000,103.0000000000,24.0000000000,1.0000000000
1717675105204,7.0000000000,0.0000000000,0.0000000000,103.0000000000,24.0000000000,1.0000000000
1717675105204,7.0000000000,0.0000000000,0.0000000000,103.0000000000,24.0000000000,1.0000000000
1717675105204,8.0000000000,0.0000000000,0.0000000000,103.0000000000,24.0000000000,2.0000000000
1717675105204,7.0000000000,0.0000000000,0.0000000000,103.0000000000,24.0000000000,1.0000000000
1717675105204,7.0000000000,0.0000000000,0.0000000000,102.0000000000,24.0000000000,1.0000000000
1717675105204,7.0000000000,0.0000000000,0.0000000000,102.0000000000,24.0000000000,1.0000000000
1717675105204,7.0000000000,0.0000000000,0.0000000000,102.0000000000,23.0000000000,1.0000000000
1717675105204,7.0000000000,0.0000000000,0.0000000000,101.0000000000,23.0000000000,1.0000000000
1717675105204,7.0000000000,0.0000000000,0.0000000000,100.0000000000,23.0000000000,1.0000000000
1717675105204,7.0000000000,0.0000000000,0.0000000000,99.0000000000,23.0000000000,1.0000000000
1717675105205,7.0000000000,0.0000000000,0.0000000000,99.0000000000,23.0000000000,1.0000000000
1717675105205,7.0000000000,0.0000000000,0.0000000000,99.0000000000,23.0000000000,1.0000000000
1717675105205,7.0000000000,0.0000000000,0.0000000000,99.0000000000,23.0000000000,1.0000000000
1717675105219,7.0000000000,0.0000000000,0.0000000000,98.0000000000,23.0000000000,1.0000000000
1717675105220,7.0000000000,0.0000000000,0.0000000000,97.0000000000,22.0000000000,2.0000000000
1717675105220,7.0000000000,0.0000000000,0.0000000000,97.0000000000,23.0000000000,1.0000000000
1717675105220,8.0000000000,0.0000000000,0.0000000000,97.0000000000,22.0000000000,1.0000000000
1717675105220,7.0000000000,0.0000000000,0.0000000000,97.0000000000,23.0000000000,1.0000000000
1717675105221,7.0000000000,0.0000000000,0.0000000000,97.0000000000,22.0000000000,1.0000000000
1717675105221,8.0000000000,0.0000000000,0.0000000000,96.0000000000,22.0000000000,1.0000000000
1717675105221,7.0000000000,0.0000000000,0.0000000000,96.0000000000,22.0000000000,1.0000000000
1717675105221,8.0000000000,0.0000000000,0.0000000000,96.0000000000,22.0000000000,1.0000000000
1717675105221,7.0000000000,0.0000000000,0.0000000000,95.0000000000,21.0000000000,1.0000000000
1717675105221,7.0000000000,0.0000000000,1.0000000000,95.0000000000,22.0000000000,1.0000000000
1717675105222,7.0000000000,0.0000000000,0.0000000000,94.0000000000,21.0000000000,1.0000000000
1717675105237,7.0000000000,0.0000000000,15.0000000000,94.0000000000,21.0000000000,1.0000000000
1717675105238,7.0000000000,0.0000000000,34.0000000000,94.0000000000,22.0000000000,1.0000000000
1717675105238,7.0000000000,0.0000000000,34.0000000000,93.0000000000,21.0000000000,1.0000000000
1717675105238,7.0000000000,0.0000000000,33.0000000000,93.0000000000,21.0000000000,1.0000000000
1717675105238,7.0000000000,0.0000000000,33.0000000000,92.0000000000,22.0000000000,1.0000000000
1717675105238,7.0000000000,0.0000000000,33.0000000000,92.0000000000,20.0000000000,1.0000000000
1717675105239,7.0000000000,0.0000000000,33.0000000000,92.0000000000,21.0000000000,1.0000000000
1717675105239,7.0000000000,0.0000000000,80.0000000000,92.0000000000,21.0000000000,0.0000000000
1717675105239,7.0000000000,0.0000000000,165.0000000000,91.0000000000,21.0000000000,1.0000000000
1717675105239,7.0000000000,15.0000000000,163.0000000000,91.0000000000,20.0000000000,1.0000000000
1717675105239,7.0000000000,29.0000000000,161.0000000000,90.0000000000,20.0000000000,1.0000000000
1717675105239,7.0000000000,29.0000000000,159.0000000000,89.0000000000,20.0000000000,1.0000000000
1717675105264,7.0000000000,28.0000000000,159.0000000000,89.0000000000,20.0000000000,1.0000000000
1717675105264,7.0000000000,28.0000000000,158.0000000000,88.0000000000,20.0000000000,1.0000000000
1717675105265,7.0000000000,28.0000000000,157.0000000000,88.0000000000,20.0000000000,1.0000000000
1717675105265,7.0000000000,28.0000000000,156.0000000000,88.0000000000,19.0000000000,1.0000000000
1717675105265,7.0000000000,28.0000000000,156.0000000000,88.0000000000,19.0000000000,1.0000000000
1717675105265,7.0000000000,28.0000000000,154.0000000000,87.0000000000,19.0000000000,1.0000000000
1717675105265,7.0000000000,28.0000000000,153.0000000000,87.0000000000,19.0000000000,1.0000000000
1717675105265,9.0000000000,27.0000000000,152.0000000000,87.0000000000,19.0000000000,1.0000000000
1717675105265,8.0000000000,27.0000000000,152.0000000000,86.0000000000,19.0000000000,0.0000000000
1717675105266,9.0000000000,27.0000000000,151.0000000000,86.0000000000,19.0000000000,1.0000000000
1717675105266,8.0000000000,27.0000000000,150.0000000000,85.0000000000,19.0000000000,1.0000000000
1717675105266,8.0000000000,68.0000000000,149.0000000000,85.0000000000,19.0000000000,1.0000000000
1717675105266,8.0000000000,118.0000000000,148.0000000000,84.0000000000,19.0000000000,0.0000000000
1717675105266,7.0000000000,117.0000000000,147.0000000000,83.0000000000,19.0000000000,1.0000000000
1717675105266,7.0000000000,115.0000000000,146.0000000000,83.0000000000,19.0000000000,1.0000000000
1717675105266,7.0000000000,115.0000000000,166.0000000000,83.0000000000,19.0000000000,1.0000000000
1717675105267,7.0000000000,114.0000000000,212.0000000000,83.0000000000,19.0000000000,1.0000000000
1717675105267,8.0000000000,113.0000000000,223.0000000000,82.0000000000,18.0000000000,1.0000000000
1717675105284,7.0000000000,112.0000000000,221.0000000000,81.0000000000,19.0000000000,1.0000000000
1717675105284,7.0000000000,112.0000000000,219.0000000000,81.0000000000,19.0000000000,1.0000000000
1717675105284,7.0000000000,111.0000000000,218.0000000000,81.0000000000,19.0000000000,1.0000000000
1717675105284,7.0000000000,111.0000000000,216.0000000000,81.0000000000,18.0000000000,1.0000000000
1717675105285,7.0000000000,110.0000000000,216.0000000000,80.0000000000,18.0000000000,1.0000000000
1717675105285,7.0000000000,109.0000000000,214.0000000000,79.0000000000,17.0000000000,1.0000000000
1717675105285,7.0000000000,108.0000000000,212.0000000000,79.0000000000,18.0000000000,1.0000000000
1717675105285,7.0000000000,108.0000000000,211.0000000000,79.0000000000,17.0000000000,1.0000000000
1717675105285,7.0000000000,108.0000000000,211.0000000000,79.0000000000,17.0000000000,0.0000000000
1717675105286,7.0000000000,106.0000000000,209.0000000000,78.0000000000,18.0000000000,1.0000000000
1717675105301,7.0000000000,105.0000000000,207.0000000000,78.0000000000,17.0000000000,1.0000000000
1717675105302,7.0000000000,105.0000000000,207.0000000000,78.0000000000,17.0000000000,0.0000000000
1717675105302,7.0000000000,105.0000000000,206.0000000000,77.0000000000,17.0000000000,1.0000000000
1717675105302,7.0000000000,103.0000000000,204.0000000000,77.0000000000,17.0000000000,1.0000000000
1717675105303,8.0000000000,103.0000000000,203.0000000000,76.0000000000,17.0000000000,0.0000000000
1717675105303,7.0000000000,103.0000000000,203.0000000000,76.0000000000,17.0000000000,0.0000000000
1717675105303,8.0000000000,103.0000000000,201.0000000000,76.0000000000,17.0000000000,0.0000000000
1717675105303,7.0000000000,102.0000000000,199.0000000000,76.0000000000,17.0000000000,1.0000000000
1717675105303,7.0000000000,101.0000000000,199.0000000000,75.0000000000,17.0000000000,0.0000000000
1717675105303,7.0000000000,100.0000000000,198.0000000000,75.0000000000,17.0000000000,0.0000000000
1717675105303,7.0000000000,100.0000000000,196.0000000000,75.0000000000,17.0000000000,0.0000000000
1717675105304,7.0000000000,99.0000000000,196.0000000000,74.0000000000,17.0000000000,0.0000000000
1717675105304,7.0000000000,99.0000000000,195.0000000000,73.0000000000,16.0000000000,0.0000000000
1717675105318,7.0000000000,98.0000000000,193.0000000000,73.0000000000,17.0000000000,0.0000000000
1717675105318,7.0000000000,98.0000000000,193.0000000000,73.0000000000,16.0000000000,1.0000000000
1717675105319,7.0000000000,97.0000000000,192.0000000000,72.0000000000,15.0000000000,1.0000000000
1717675105319,7.0000000000,97.0000000000,191.0000000000,72.0000000000,16.0000000000,1.0000000000
1717675105319,7.0000000000,96.0000000000,190.0000000000,71.0000000000,16.0000000000,0.0000000000
1717675105319,9.0000000000,96.0000000000,190.0000000000,71.0000000000,15.0000000000,0.0000000000
1717675105319,11.0000000000,96.0000000000,188.0000000000,71.0000000000,15.0000000000,0.0000000000
1717675105319,10.0000000000,96.0000000000,188.0000000000,71.0000000000,16.0000000000,0.0000000000
1717675105320,10.0000000000,95.0000000000,187.0000000000,71.0000000000,15.0000000000,0.0000000000
1717675105320,10.0000000000,94.0000000000,185.0000000000,70.0000000000,15.0000000000,0.0000000000
1717675105320,9.0000000000,94.0000000000,184.0000000000,70.0000000000,15.0000000000,0.0000000000
1717675105338,10.0000000000,93.0000000000,184.0000000000,70.0000000000,15.0000000000,0.0000000000
1717675105338,9.0000000000,93.0000000000,183.0000000000,69.0000000000,15.0000000000,0.0000000000
1717675105339,10.0000000000,92.0000000000,182.0000000000,70.0000000000,15.0000000000,0.0000000000
1717675105339,10.0000000000,92.0000000000,181.0000000000,69.0000000000,15.0000000000,0.0000000000
1717675105339,9.0000000000,91.0000000000,179.0000000000,68.0000000000,15.0000000000,0.0000000000
1717675105339,10.0000000000,91.0000000000,179.0000000000,68.0000000000,15.0000000000,0.0000000000
1717675105339,10.0000000000,90.0000000000,178.0000000000,68.0000000000,15.0000000000,0.0000000000
1717675105339,9.0000000000,89.0000000000,176.0000000000,67.0000000000,15.0000000000,0.0000000000
1717675105339,9.0000000000,92.0000000000,216.0000000000,67.0000000000,15.0000000000,0.0000000000
1717675105339,9.0000000000,199.0000000000,307.0000000000,67.0000000000,15.0000000000,0.0000000000
1717675105339,9.0000000000,339.0000000000,307.0000000000,66.0000000000,15.0000000000,0.0000000000
1717675105339,9.0000000000,380.0000000000,304.0000000000,66.0000000000,15.0000000000,0.0000000000
1717675105340,9.0000000000,376.0000000000,301.0000000000,65.0000000000,15.0000000000,0.0000000000
1717675105353,9.0000000000,373.0000000000,299.0000000000,65.0000000000,15.0000000000,0.0000000000
1717675105354,9.0000000000,369.0000000000,297.0000000000,65.0000000000,14.0000000000,0.0000000000
1717675105354,9.0000000000,367.0000000000,295.0000000000,65.0000000000,15.0000000000,0.0000000000
1717675105354,9.0000000000,364.0000000000,294.0000000000,63.0000000000,14.0000000000,0.0000000000
1717675105354,8.0000000000,362.0000000000,295.0000000000,63.0000000000,14.0000000000,0.0000000000
1717675105354,9.0000000000,359.0000000000,292.0000000000,63.0000000000,14.0000000000,0.0000000000
1717675105354,8.0000000000,356.0000000000,291.0000000000,63.0000000000,14.0000000000,0.0000000000
1717675105368,7.0000000000,355.0000000000,289.0000000000,63.0000000000,14.0000000000,0.0000000000
1717675105369,8.0000000000,352.0000000000,287.0000000000,63.0000000000,14.0000000000,0.0000000000
1717675105369,7.0000000000,350.0000000000,286.0000000000,63.0000000000,14.0000000000,0.0000000000
1717675105369,7.0000000000,348.0000000000,284.0000000000,63.0000000000,15.0000000000,0.0000000000
1717675105370,7.0000000000,345.0000000000,283.0000000000,62.0000000000,17.0000000000,0.0000000000
1717675105370,7.0000000000,344.0000000000,280.0000000000,62.0000000000,17.0000000000,0.0000000000
1717675105370,8.0000000000,341.0000000000,315.0000000000,62.0000000000,17.0000000000,0.0000000000
1717675105370,7.0000000000,339.0000000000,342.0000000000,61.0000000000,17.0000000000,0.0000000000
1717675105370,71.0000000000,337.0000000000,338.0000000000,61.0000000000,17.0000000000,0.0000000000
1717675105370,103.0000000000,334.0000000000,335.0000000000,60.0000000000,17.0000000000,0.0000000000
1717675105389,102.0000000000,332.0000000000,333.0000000000,88.0000000000,16.0000000000,0.0000000000
1717675105391,101.0000000000,329.0000000000,331.0000000000,88.0000000000,16.0000000000,0.0000000000
1717675105392,99.0000000000,327.0000000000,327.0000000000,86.0000000000,15.0000000000,0.0000000000
1717675105392,99.0000000000,326.0000000000,327.0000000000,86.0000000000,16.0000000000,0.0000000000
1717675105392,99.0000000000,323.0000000000,323.0000000000,86.0000000000,17.0000000000,0.0000000000
1717675105392,98.0000000000,321.0000000000,322.0000000000,92.0000000000,17.0000000000,0.0000000000
1717675105393,97.0000000000,319.0000000000,319.0000000000,92.0000000000,17.0000000000,0.0000000000
1717675105393,96.0000000000,318.0000000000,318.0000000000,91.0000000000,17.0000000000,0.0000000000
1717675105393,96.0000000000,316.0000000000,316.0000000000,89.0000000000,17.0000000000,0.0000000000
1717675105393,96.0000000000,314.0000000000,313.0000000000,89.0000000000,17.0000000000,0.0000000000
1717675105394,95.0000000000,312.0000000000,312.0000000000,88.0000000000,17.0000000000,0.0000000000
1717675105394,95.0000000000,310.0000000000,310.0000000000,88.0000000000,17.0000000000,0.0000000000
1717675105395,94.0000000000,308.0000000000,308.0000000000,88.0000000000,17.0000000000,0.0000000000
1717675105396,93.0000000000,306.0000000000,307.0000000000,88.0000000000,17.0000000000,0.0000000000
1717675105396,92.0000000000,304.0000000000,304.0000000000,87.0000000000,16.0000000000,0.0000000000
1717675105420,92.0000000000,303.0000000000,303.0000000000,86.0000000000,16.0000000000,0.0000000000
1717675105420,91.0000000000,301.0000000000,301.0000000000,86.0000000000,16.0000000000,0.0000000000
1717675105421,91.0000000000,299.0000000000,362.0000000000,84.0000000000,17.0000000000,0.0000000000
1717675105421,91.0000000000,297.0000000000,358.0000000000,84.0000000000,22.0000000000,0.0000000000
1717675105421,89.0000000000,295.0000000000,355.0000000000,83.0000000000,22.0000000000,0.0000000000
1717675105421,89.0000000000,294.0000000000,352.0000000000,83.0000000000,21.0000000000,0.0000000000
1717675105421,89.0000000000,292.0000000000,350.0000000000,83.0000000000,21.0000000000,0.0000000000
1717675105421,88.0000000000,290.0000000000,348.0000000000,82.0000000000,20.0000000000,0.0000000000
1717675105422,142.0000000000,289.0000000000,344.0000000000,82.0000000000,20.0000000000,0.0000000000
1717675105422,147.0000000000,287.0000000000,343.0000000000,81.0000000000,20.0000000000,0.0000000000
1717675105422,146.0000000000,285.0000000000,339.0000000000,81.0000000000,20.0000000000,0.0000000000
1717675105422,145.0000000000,284.0000000000,338.0000000000,81.0000000000,20.0000000000,0.0000000000
1717675105422,143.0000000000,281.0000000000,335.0000000000,80.0000000000,20.0000000000,0.0000000000
1717675105422,143.0000000000,280.0000000000,333.0000000000,79.0000000000,20.0000000000,0.0000000000
1717675105423,142.0000000000,279.0000000000,332.0000000000,79.0000000000,19.0000000000,0.0000000000
1717675105423,141.0000000000,277.0000000000,327.0000000000,79.0000000000,19.0000000000,0.0000000000
1717675105437,140.0000000000,275.0000000000,327.0000000000,78.0000000000,19.0000000000,0.0000000000
1717675105438,139.0000000000,273.0000000000,390.0000000000,78.0000000000,19.0000000000,0.0000000000
1717675105438,137.0000000000,271.0000000000,504.0000000000,77.0000000000,19.0000000000,0.0000000000
1717675105438,137.0000000000,270.0000000000,499.0000000000,76.0000000000,19.0000000000,0.0000000000
1717675105438,135.0000000000,269.0000000000,494.0000000000,76.0000000000,19.0000000000,0.0000000000
1717675105439,135.0000000000,267.0000000000,490.0000000000,76.0000000000,19.0000000000,0.0000000000
1717675105439,135.0000000000,265.0000000000,486.0000000000,75.0000000000,19.0000000000,0.0000000000
1717675105439,134.0000000000,263.0000000000,481.0000000000,75.0000000000,19.0000000000,0.0000000000
1717675105439,133.0000000000,391.0000000000,479.0000000000,75.0000000000,19.0000000000,0.0000000000
1717675105455,131.0000000000,446.0000000000,473.0000000000,74.0000000000,19.0000000000,0.0000000000
1717675105455,131.0000000000,440.0000000000,471.0000000000,73.0000000000,19.0000000000,0.0000000000
1717675105455,131.0000000000,435.0000000000,467.0000000000,73.0000000000,19.0000000000,0.0000000000
1717675105456,129.0000000000,432.0000000000,480.0000000000,72.0000000000,19.0000000000,0.0000000000
1717675105456,137.0000000000,429.0000000000,476.0000000000,71.0000000000,19.0000000000,0.0000000000
1717675105456,185.0000000000,425.0000000000,472.0000000000,71.0000000000,19.0000000000,0.0000000000
1717675105456,184.0000000000,422.0000000000,467.0000000000,71.0000000000,18.0000000000,0.0000000000
1717675105456,182.0000000000,419.0000000000,463.0000000000,71.0000000000,19.0000000000,0.0000000000
1717675105456,180.0000000000,415.0000000000,460.0000000000,71.0000000000,18.0000000000,0.0000000000
1717675105471,179.0000000000,412.0000000000,457.0000000000,71.0000000000,18.0000000000,0.0000000000
1717675105472,178.0000000000,409.0000000000,454.0000000000,70.0000000000,18.0000000000,0.0000000000
1717675105472,177.0000000000,406.0000000000,451.0000000000,70.0000000000,18.0000000000,0.0000000000
1717675105472,176.0000000000,403.0000000000,535.0000000000,70.0000000000,18.0000000000,0.0000000000
1717675105472,175.0000000000,400.0000000000,529.0000000000,68.0000000000,18.0000000000,0.0000000000
1717675105472,174.0000000000,397.0000000000,524.0000000000,68.0000000000,18.0000000000,0.0000000000
1717675105472,172.0000000000,395.0000000000,519.0000000000,68.0000000000,18.0000000000,0.0000000000
1717675105473,172.0000000000,391.0000000000,515.0000000000,67.0000000000,17.0000000000,0.0000000000
1717675105473,171.0000000000,389.0000000000,510.0000000000,67.0000000000,17.0000000000,0.0000000000
1717675105488,169.0000000000,386.0000000000,507.0000000000,67.0000000000,18.0000000000,0.0000000000
1717675105489,265.0000000000,384.0000000000,503.0000000000,67.0000000000,17.0000000000,0.0000000000
1717675105489,303.0000000000,381.0000000000,497.0000000000,66.0000000000,17.0000000000,0.0000000000
1717675105489,366.0000000000,378.0000000000,495.0000000000,118.0000000000,29.0000000000,0.0000000000
1717675105489,405.0000000000,376.0000000000,490.0000000000,132.0000000000,31.0000000000,0.0000000000
1717675105489,399.0000000000,373.0000000000,486.0000000000,131.0000000000,32.0000000000,0.0000000000
1717675105489,396.0000000000,371.0000000000,483.0000000000,130.0000000000,31.0000000000,0.0000000000
1717675105489,392.0000000000,368.0000000000,478.0000000000,129.0000000000,31.0000000000,0.0000000000
1717675105489,390.0000000000,366.0000000000,475.0000000000,127.0000000000,31.0000000000,0.0000000000
1717675105505,385.0000000000,363.0000000000,470.0000000000,127.0000000000,31.0000000000,0.0000000000
1717675105506,383.0000000000,359.0000000000,467.0000000000,126.0000000000,31.0000000000,0.0000000000
1717675105506,380.0000000000,358.0000000000,463.0000000000,125.0000000000,31.0000000000,0.0000000000
1717675105506,376.0000000000,355.0000000000,460.0000000000,124.0000000000,31.0000000000,0.0000000000
1717675105506,374.0000000000,353.0000000000,455.0000000000,124.0000000000,30.0000000000,0.0000000000
1717675105507,371.0000000000,351.0000000000,452.0000000000,123.0000000000,30.0000000000,0.0000000000
1717675105507,368.0000000000,348.0000000000,450.0000000000,121.0000000000,30.0000000000,0.0000000000
1717675105507,365.0000000000,345.0000000000,446.0000000000,121.0000000000,32.0000000000,0.0000000000
1717675105507,363.0000000000,344.0000000000,443.0000000000,120.0000000000,31.0000000000,0.0000000000
1717675105507,359.0000000000,340.0000000000,440.0000000000,120.0000000000,31.0000000000,0.0000000000
1717675105507,356.0000000000,339.0000000000,436.0000000000,118.0000000000,31.0000000000,0.0000000000
1717675105524,354.0000000000,335.0000000000,432.0000000000,118.0000000000,31.0000000000,0.0000000000
1717675105526,352.0000000000,335.0000000000,430.0000000000,117.0000000000,31.0000000000,0.0000000000
1717675105526,349.0000000000,332.0000000000,426.0000000000,116.0000000000,31.0000000000,0.0000000000
1717675105526,347.0000000000,329.0000000000,423.0000000000,115.0000000000,31.0000000000,0.0000000000
1717675105526,344.0000000000,327.0000000000,420.0000000000,115.0000000000,31.0000000000,0.0000000000
1717675105527,342.0000000000,326.0000000000,417.0000000000,114.0000000000,31.0000000000,0.0000000000
1717675105527,339.0000000000,323.0000000000,414.0000000000,113.0000000000,31.0000000000,0.0000000000
1717675105527,336.0000000000,321.0000000000,412.0000000000,113.0000000000,30.0000000000,0.0000000000
1717675105528,334.0000000000,319.0000000000,408.0000000000,112.0000000000,30.0000000000,0.0000000000
1717675105528,332.0000000000,318.0000000000,406.0000000000,111.0000000000,30.0000000000,0.0000000000
1717675105529,329.0000000000,316.0000000000,403.0000000000,111.0000000000,29.0000000000,0.0000000000
1717675105556,327.0000000000,313.0000000000,399.0000000000,110.0000000000,29.0000000000,0.0000000000
1717675105557,325.0000000000,312.0000000000,398.0000000000,110.0000000000,29.0000000000,0.0000000000
1717675105557,323.0000000000,310.0000000000,395.0000000000,109.0000000000,29.0000000000,0.0000000000
1717675105557,320.0000000000,307.0000000000,391.0000000000,108.0000000000,28.0000000000,0.0000000000
1717675105557,319.0000000000,305.0000000000,390.0000000000,108.0000000000,28.0000000000,0.0000000000
1717675105557,316.0000000000,304.0000000000,498.0000000000,107.0000000000,28.0000000000,0.0000000000
1717675105557,313.0000000000,302.0000000000,492.0000000000,105.0000000000,28.0000000000,0.0000000000
1717675105558,312.0000000000,300.0000000000,487.0000000000,105.0000000000,28.0000000000,0.0000000000
1717675105558,310.0000000000,297.0000000000,484.0000000000,104.0000000000,28.0000000000,0.0000000000
1717675105558,307.0000000000,295.0000000000,480.0000000000,103.0000000000,28.0000000000,0.0000000000
1717675105558,306.0000000000,294.0000000000,476.0000000000,103.0000000000,28.0000000000,0.0000000000
1717675105558,304.0000000000,292.0000000000,472.0000000000,103.0000000000,28.0000000000,0.0000000000
1717675105558,302.0000000000,291.0000000000,467.0000000000,102.0000000000,28.0000000000,0.0000000000
1717675105558,300.0000000000,289.0000000000,464.0000000000,100.0000000000,27.0000000000,0.0000000000
1717675105558,297.0000000000,287.0000000000,460.0000000000,100.0000000000,27.0000000000,0.0000000000
1717675105558,295.0000000000,329.0000000000,455.0000000000,100.0000000000,26.0000000000,0.0000000000
1717675105574,294.0000000000,326.0000000000,453.0000000000,99.0000000000,43.0000000000,0.0000000000
1717675105574,291.0000000000,323.0000000000,450.0000000000,99.0000000000,41.0000000000,0.0000000000
1717675105574,290.0000000000,321.0000000000,446.0000000000,98.0000000000,41.0000000000,0.0000000000
1717675105574,287.0000000000,318.0000000000,444.0000000000,98.0000000000,41.0000000000,0.0000000000
1717675105574,287.0000000000,317.0000000000,440.0000000000,97.0000000000,40.0000000000,0.0000000000
1717675105574,285.0000000000,313.0000000000,437.0000000000,97.0000000000,40.0000000000,0.0000000000
1717675105575,284.0000000000,312.0000000000,433.0000000000,96.0000000000,39.0000000000,0.0000000000
1717675105575,281.0000000000,310.0000000000,430.0000000000,96.0000000000,39.0000000000,0.0000000000
1717675105575,280.0000000000,307.0000000000,427.0000000000,95.0000000000,39.0000000000,0.0000000000
1717675105591,279.0000000000,305.0000000000,423.0000000000,95.0000000000,39.0000000000,0.0000000000
1717675105591,276.0000000000,304.0000000000,422.0000000000,94.0000000000,39.0000000000,0.0000000000
1717675105592,275.0000000000,302.0000000000,418.0000000000,93.0000000000,39.0000000000,0.0000000000
1717675105592,273.0000000000,300.0000000000,415.0000000000,93.0000000000,39.0000000000,0.0000000000
1717675105592,271.0000000000,297.0000000000,412.0000000000,92.0000000000,38.0000000000,0.0000000000
1717675105592,270.0000000000,295.0000000000,409.0000000000,92.0000000000,38.0000000000,0.0000000000
1717675105592,268.0000000000,294.0000000000,407.0000000000,92.0000000000,38.0000000000,0.0000000000
1717675105592,267.0000000000,292.0000000000,404.0000000000,91.0000000000,38.0000000000,0.0000000000
1717675105592,265.0000000000,289.0000000000,400.0000000000,90.0000000000,38.0000000000,0.0000000000
1717675105609,263.0000000000,287.0000000000,399.0000000000,90.0000000000,37.0000000000,0.0000000000
1717675105610,262.0000000000,287.0000000000,396.0000000000,89.0000000000,37.0000000000,0.0000000000
1717675105610,261.0000000000,284.0000000000,403.0000000000,88.0000000000,36.0000000000,0.0000000000
1717675105610,259.0000000000,283.0000000000,399.0000000000,88.0000000000,36.0000000000,0.0000000000
1717675105610,257.0000000000,281.0000000000,397.0000000000,88.0000000000,35.0000000000,0.0000000000
1717675105611,255.0000000000,280.0000000000,393.0000000000,88.0000000000,35.0000000000,0.0000000000
1717675105611,255.0000000000,279.0000000000,391.0000000000,87.0000000000,35.0000000000,0.0000000000
1717675105611,254.0000000000,276.0000000000,388.0000000000,86.0000000000,35.0000000000,0.0000000000
1717675105611,252.0000000000,275.0000000000,385.0000000000,86.0000000000,35.0000000000,0.0000000000
1717675105611,251.0000000000,273.0000000000,384.0000000000,86.0000000000,35.0000000000,0.0000000000
1717675105611,249.0000000000,271.0000000000,380.0000000000,84.0000000000,35.0000000000,0.0000000000
1717675105628,248.0000000000,270.0000000000,378.0000000000,83.0000000000,35.0000000000,0.0000000000
1717675105629,247.0000000000,268.0000000000,376.0000000000,83.0000000000,35.0000000000,0.0000000000
1717675105629,245.0000000000,268.0000000000,374.0000000000,83.0000000000,34.0000000000,0.0000000000
1717675105629,243.0000000000,266.0000000000,439.0000000000,83.0000000000,34.0000000000,0.0000000000
1717675105629,242.0000000000,263.0000000000,478.0000000000,82.0000000000,33.0000000000,0.0000000000
1717675105630,240.0000000000,263.0000000000,472.0000000000,81.0000000000,33.0000000000,0.0000000000
1717675105630,239.0000000000,262.0000000000,470.0000000000,81.0000000000,33.0000000000,0.0000000000
1717675105630,238.0000000000,260.0000000000,465.0000000000,81.0000000000,33.0000000000,0.0000000000
1717675105630,236.0000000000,259.0000000000,462.0000000000,80.0000000000,33.0000000000,0.0000000000
1717675105630,236.0000000000,257.0000000000,457.0000000000,79.0000000000,33.0000000000,0.0000000000
1717675105631,234.0000000000,255.0000000000,455.0000000000,79.0000000000,32.0000000000,0.0000000000
1717675105631,233.0000000000,255.0000000000,451.0000000000,79.0000000000,31.0000000000,0.0000000000
1717675105648,231.0000000000,252.0000000000,448.0000000000,79.0000000000,31.0000000000,0.0000000000
1717675105649,231.0000000000,280.0000000000,444.0000000000,78.0000000000,31.0000000000,0.0000000000
1717675105649,229.0000000000,344.0000000000,440.0000000000,78.0000000000,31.0000000000,0.0000000000
1717675105649,228.0000000000,340.0000000000,438.0000000000,77.0000000000,31.0000000000,0.0000000000
1717675105649,227.0000000000,337.0000000000,434.0000000000,77.0000000000,31.0000000000,0.0000000000
1717675105649,225.0000000000,335.0000000000,431.0000000000,76.0000000000,31.0000000000,0.0000000000
1717675105649,224.0000000000,332.0000000000,428.0000000000,76.0000000000,31.0000000000,0.0000000000
1717675105649,223.0000000000,331.0000000000,423.0000000000,76.0000000000,31.0000000000,0.0000000000
1717675105649,221.0000000000,327.0000000000,422.0000000000,75.0000000000,30.0000000000,0.0000000000
1717675105664,220.0000000000,326.0000000000,419.0000000000,75.0000000000,30.0000000000,0.0000000000
1717675105665,220.0000000000,323.0000000000,415.0000000000,74.0000000000,30.0000000000,0.0000000000
1717675105665,218.0000000000,321.0000000000,413.0000000000,73.0000000000,30.0000000000,0.0000000000
1717675105665,216.0000000000,319.0000000000,409.0000000000,73.0000000000,30.0000000000,0.0000000000
1717675105665,216.0000000000,316.0000000000,408.0000000000,72.0000000000,30.0000000000,0.0000000000
1717675105665,215.0000000000,315.0000000000,403.0000000000,72.0000000000,29.0000000000,0.0000000000
1717675105665,214.0000000000,312.0000000000,401.0000000000,71.0000000000,29.0000000000,0.0000000000
1717675105665,212.0000000000,311.0000000000,399.0000000000,71.0000000000,29.0000000000,0.0000000000
1717675105666,211.0000000000,308.0000000000,396.0000000000,75.0000000000,29.0000000000,0.0000000000
1717675105681,209.0000000000,306.0000000000,393.0000000000,92.0000000000,29.0000000000,0.0000000000
1717675105682,209.0000000000,304.0000000000,390.0000000000,91.0000000000,29.0000000000,0.0000000000
1717675105682,207.0000000000,303.0000000000,388.0000000000,91.0000000000,28.0000000000,0.0000000000
1717675105683,207.0000000000,300.0000000000,385.0000000000,90.0000000000,28.0000000000,0.0000000000
1717675105683,206.0000000000,299.0000000000,383.0000000000,89.0000000000,28.0000000000,0.0000000000
1717675105683,204.0000000000,295.0000000000,380.0000000000,88.0000000000,28.0000000000,0.0000000000
1717675105683,203.0000000000,295.0000000000,377.0000000000,88.0000000000,28.0000000000,0.0000000000
1717675105683,202.0000000000,292.0000000000,376.0000000000,88.0000000000,28.0000000000,0.0000000000
1717675105684,201.0000000000,291.0000000000,372.0000000000,88.0000000000,28.0000000000,0.0000000000
1717675105684,199.0000000000,289.0000000000,371.0000000000,86.0000000000,27.0000000000,0.0000000000
1717675105685,199.0000000000,287.0000000000,368.0000000000,86.0000000000,27.0000000000,0.0000000000
1717675105685,198.0000000000,286.0000000000,366.0000000000,85.0000000000,27.0000000000,0.0000000000
1717675105698,196.0000000000,284.0000000000,364.0000000000,85.0000000000,27.0000000000,0.0000000000
1717675105699,196.0000000000,282.0000000000,361.0000000000,84.0000000000,27.0000000000,0.0000000000
1717675105699,195.0000000000,280.0000000000,359.0000000000,84.0000000000,26.0000000000,0.0000000000
1717675105699,275.0000000000,279.0000000000,357.0000000000,83.0000000000,26.0000000000,0.0000000000
1717675105699,305.0000000000,277.0000000000,355.0000000000,83.0000000000,26.0000000000,0.0000000000
1717675105699,303.0000000000,275.0000000000,377.0000000000,82.0000000000,25.0000000000,0.0000000000
1717675105700,300.0000000000,273.0000000000,374.0000000000,82.0000000000,26.0000000000,0.0000000000
1717675105700,297.0000000000,271.0000000000,371.0000000000,81.0000000000,25.0000000000,0.0000000000
1717675105700,295.0000000000,270.0000000000,368.0000000000,81.0000000000,25.0000000000,0.0000000000
1717675105717,293.0000000000,268.0000000000,366.0000000000,80.0000000000,25.0000000000,0.0000000000
1717675105717,291.0000000000,267.0000000000,363.0000000000,79.0000000000,25.0000000000,0.0000000000
1717675105718,289.0000000000,265.0000000000,359.0000000000,79.0000000000,25.0000000000,0.0000000000
1717675105718,287.0000000000,263.0000000000,358.0000000000,79.0000000000,25.0000000000,0.0000000000
1717675105718,286.0000000000,263.0000000000,355.0000000000,78.0000000000,24.0000000000,0.0000000000
1717675105718,284.0000000000,260.0000000000,352.0000000000,78.0000000000,25.0000000000,0.0000000000
1717675105718,281.0000000000,259.0000000000,351.0000000000,78.0000000000,24.0000000000,0.0000000000
1717675105719,280.0000000000,257.0000000000,350.0000000000,76.0000000000,24.0000000000,0.0000000000
1717675105719,278.0000000000,332.0000000000,348.0000000000,76.0000000000,24.0000000000,0.0000000000
1717675105732,275.0000000000,329.0000000000,345.0000000000,76.0000000000,24.0000000000,0.0000000000
1717675105732,274.0000000000,327.0000000000,344.0000000000,75.0000000000,24.0000000000,0.0000000000
1717675105732,271.0000000000,335.0000000000,342.0000000000,75.0000000000,24.0000000000,0.0000000000
1717675105733,270.0000000000,333.0000000000,339.0000000000,74.0000000000,24.0000000000,0.0000000000
1717675105733,268.0000000000,330.0000000000,337.0000000000,74.0000000000,23.0000000000,0.0000000000
1717675105733,267.0000000000,327.0000000000,335.0000000000,73.0000000000,24.0000000000,0.0000000000
1717675105733,265.0000000000,325.0000000000,334.0000000000,73.0000000000,24.0000000000,0.0000000000
1717675105733,263.0000000000,323.0000000000,332.0000000000,73.0000000000,23.0000000000,0.0000000000
1717675105733,262.0000000000,319.0000000000,329.0000000000,71.0000000000,22.0000000000,0.0000000000
1717675105747,259.0000000000,319.0000000000,327.0000000000,71.0000000000,23.0000000000,0.0000000000
1717675105748,259.0000000000,316.0000000000,326.0000000000,71.0000000000,23.0000000000,0.0000000000
1717675105748,257.0000000000,313.0000000000,324.0000000000,71.0000000000,23.0000000000,0.0000000000
1717675105749,255.0000000000,312.0000000000,322.0000000000,71.0000000000,23.0000000000,0.0000000000
1717675105749,254.0000000000,310.0000000000,319.0000000000,83.0000000000,22.0000000000,0.0000000000
1717675105750,252.0000000000,307.0000000000,319.0000000000,83.0000000000,22.0000000000,0.0000000000
1717675105750,251.0000000000,306.0000000000,316.0000000000,81.0000000000,22.0000000000,0.0000000000
1717675105750,249.0000000000,304.0000000000,315.0000000000,81.0000000000,22.0000000000,0.0000000000
1717675105751,248.0000000000,302.0000000000,313.0000000000,82.0000000000,22.0000000000,0.0000000000
1717675105782,246.0000000000,300.0000000000,312.0000000000,82.0000000000,22.0000000000,0.0000000000
1717675105782,244.0000000000,297.0000000000,310.0000000000,81.0000000000,22.0000000000,0.0000000000
1717675105782,243.0000000000,295.0000000000,307.0000000000,80.0000000000,22.0000000000,0.0000000000
1717675105783,241.0000000000,294.0000000000,306.0000000000,79.0000000000,21.0000000000,0.0000000000
1717675105783,240.0000000000,292.0000000000,304.0000000000,79.0000000000,21.0000000000,0.0000000000
1717675105783,239.0000000000,290.0000000000,303.0000000000,79.0000000000,21.0000000000,0.0000000000
1717675105783,237.0000000000,287.0000000000,301.0000000000,79.0000000000,21.0000000000,0.0000000000
1717675105783,236.0000000000,287.0000000000,300.0000000000,78.0000000000,20.0000000000,0.0000000000
1717675105783,234.0000000000,284.0000000000,297.0000000000,78.0000000000,20.0000000000,0.0000000000
1717675105783,232.0000000000,284.0000000000,295.0000000000,77.0000000000,20.0000000000,0.0000000000
1717675105783,231.0000000000,280.0000000000,295.0000000000,76.0000000000,19.0000000000,0.0000000000
1717675105783,231.0000000000,280.0000000000,292.0000000000,76.0000000000,20.0000000000,0.0000000000
1717675105783,228.0000000000,278.0000000000,291.0000000000,76.0000000000,20.0000000000,0.0000000000
1717675105783,227.0000000000,275.0000000000,290.0000000000,75.0000000000,19.0000000000,0.0000000000
1717675105784,226.0000000000,274.0000000000,287.0000000000,75.0000000000,19.0000000000,0.0000000000
1717675105784,225.0000000000,271.0000000000,287.0000000000,73.0000000000,19.0000000000,0.0000000000
1717675105784,224.0000000000,271.0000000000,285.0000000000,73.0000000000,19.0000000000,0.0000000000
1717675105784,222.0000000000,269.0000000000,371.0000000000,73.0000000000,19.0000000000,0.0000000000
1717675105784,221.0000000000,268.0000000000,367.0000000000,71.0000000000,19.0000000000,0.0000000000
1717675105803,220.0000000000,265.0000000000,363.0000000000,71.0000000000,19.0000000000,0.0000000000
1717675105803,217.0000000000,263.0000000000,360.0000000000,71.0000000000,19.0000000000,0.0000000000
1717675105804,216.0000000000,263.0000000000,358.0000000000,71.0000000000,19.0000000000,0.0000000000
1717675105804,216.0000000000,261.0000000000,355.0000000000,71.0000000000,19.0000000000,0.0000000000
1717675105804,215.0000000000,259.0000000000,353.0000000000,71.0000000000,19.0000000000,0.0000000000
1717675105804,214.0000000000,258.0000000000,350.0000000000,71.0000000000,19.0000000000,0.0000000000
1717675105804,211.0000000000,260.0000000000,348.0000000000,70.0000000000,19.0000000000,0.0000000000
1717675105804,211.0000000000,259.0000000000,345.0000000000,69.0000000000,19.0000000000,0.0000000000
1717675105804,209.0000000000,255.0000000000,344.0000000000,68.0000000000,19.0000000000,0.0000000000
1717675105804,208.0000000000,255.0000000000,340.0000000000,68.0000000000,19.0000000000,0.0000000000
1717675105804,207.0000000000,254.0000000000,339.0000000000,68.0000000000,19.0000000000,0.0000000000
1717675105820,206.0000000000,252.0000000000,336.0000000000,67.0000000000,18.0000000000,0.0000000000
1717675105820,205.0000000000,251.0000000000,334.0000000000,67.0000000000,19.0000000000,0.0000000000
1717675105820,204.0000000000,249.0000000000,332.0000000000,73.0000000000,19.0000000000,0.0000000000
1717675105821,203.0000000000,248.0000000000,329.0000000000,73.0000000000,18.0000000000,0.0000000000
1717675105821,246.0000000000,247.0000000000,327.0000000000,73.0000000000,18.0000000000,0.0000000000
1717675105821,352.0000000000,246.0000000000,326.0000000000,171.0000000000,18.0000000000,0.0000000000
1717675105821,347.0000000000,243.0000000000,323.0000000000,169.0000000000,18.0000000000,0.0000000000
1717675105821,344.0000000000,242.0000000000,321.0000000000,167.0000000000,17.0000000000,0.0000000000
1717675105821,340.0000000000,241.0000000000,319.0000000000,167.0000000000,17.0000000000,0.0000000000
1717675105837,338.0000000000,240.0000000000,316.0000000000,164.0000000000,17.0000000000,0.0000000000
1717675105837,335.0000000000,239.0000000000,315.0000000000,163.0000000000,17.0000000000,0.0000000000
1717675105838,333.0000000000,237.0000000000,312.0000000000,163.0000000000,17.0000000000,0.0000000000
1717675105838,331.0000000000,236.0000000000,311.0000000000,161.0000000000,17.0000000000,0.0000000000
1717675105838,327.0000000000,235.0000000000,308.0000000000,159.0000000000,17.0000000000,0.0000000000
1717675105839,326.0000000000,233.0000000000,306.0000000000,159.0000000000,17.0000000000,0.0000000000
1717675105840,323.0000000000,231.0000000000,304.0000000000,158.0000000000,17.0000000000,0.0000000000
1717675105840,321.0000000000,231.0000000000,303.0000000000,156.0000000000,17.0000000000,0.0000000000
1717675105840,319.0000000000,229.0000000000,301.0000000000,156.0000000000,17.0000000000,0.0000000000
1717675105840,316.0000000000,228.0000000000,299.0000000000,155.0000000000,16.0000000000,0.0000000000
1717675105840,314.0000000000,227.0000000000,295.0000000000,155.0000000000,19.0000000000,0.0000000000
1717675105854,312.0000000000,225.0000000000,295.0000000000,153.0000000000,19.0000000000,0.0000000000
1717675105854,310.0000000000,224.0000000000,293.0000000000,152.0000000000,19.0000000000,0.0000000000
1717675105854,307.0000000000,223.0000000000,292.0000000000,151.0000000000,19.0000000000,0.0000000000
1717675105855,305.0000000000,222.0000000000,291.0000000000,150.0000000000,19.0000000000,0.0000000000
1717675105855,303.0000000000,220.0000000000,289.0000000000,150.0000000000,19.0000000000,0.0000000000
1717675105855,300.0000000000,219.0000000000,287.0000000000,148.0000000000,19.0000000000,0.0000000000
1717675105855,299.0000000000,219.0000000000,286.0000000000,147.0000000000,19.0000000000,0.0000000000
1717675105855,296.0000000000,217.0000000000,284.0000000000,146.0000000000,18.0000000000,0.0000000000
1717675105855,294.0000000000,216.0000000000,283.0000000000,145.0000000000,18.0000000000,0.0000000000
1717675105877,293.0000000000,216.0000000000,338.0000000000,144.0000000000,18.0000000000,0.0000000000
1717675105880,291.0000000000,214.0000000000,335.0000000000,143.0000000000,19.0000000000,0.0000000000
1717675105881,289.0000000000,212.0000000000,332.0000000000,143.0000000000,19.0000000000,0.0000000000
1717675105881,287.0000000000,211.0000000000,328.0000000000,142.0000000000,18.0000000000,0.0000000000
1717675105882,284.0000000000,210.0000000000,327.0000000000,140.0000000000,18.0000000000,0.0000000000
1717675105883,283.0000000000,209.0000000000,324.0000000000,140.0000000000,19.0000000000,0.0000000000
1717675105883,281.0000000000,208.0000000000,321.0000000000,140.0000000000,18.0000000000,0.0000000000
1717675105884,280.0000000000,207.0000000000,319.0000000000,137.0000000000,18.0000000000,0.0000000000
1717675105885,278.0000000000,217.0000000000,318.0000000000,137.0000000000,18.0000000000,0.0000000000
1717675105886,316.0000000000,316.0000000000,316.0000000000,153.0000000000,18.0000000000,0.0000000000
1717675105887,313.0000000000,312.0000000000,313.0000000000,153.0000000000,17.0000000000,0.0000000000
1717675105887,311.0000000000,355.0000000000,377.0000000000,152.0000000000,36.0000000000,0.0000000000
1717675105888,308.0000000000,375.0000000000,462.0000000000,151.0000000000,36.0000000000,0.0000000000
1717675105888,305.0000000000,371.0000000000,455.0000000000,150.0000000000,36.0000000000,0.0000000000
1717675105889,304.0000000000,368.0000000000,451.0000000000,148.0000000000,36.0000000000,0.0000000000
1717675105889,301.0000000000,365.0000000000,448.0000000000,147.0000000000,35.0000000000,0.0000000000
1717675105890,299.0000000000,362.0000000000,444.0000000000,147.0000000000,35.0000000000,0.0000000000
1717675105909,295.0000000000,359.0000000000,440.0000000000,145.0000000000,35.0000000000,0.0000000000
1717675105910,295.0000000000,356.0000000000,436.0000000000,144.0000000000,35.0000000000,0.0000000000
1717675105910,304.0000000000,354.0000000000,433.0000000000,143.0000000000,35.0000000000,0.0000000000
1717675105910,303.0000000000,352.0000000000,430.0000000000,143.0000000000,34.0000000000,0.0000000000
1717675105910,300.0000000000,348.0000000000,427.0000000000,142.0000000000,34.0000000000,0.0000000000
1717675105910,297.0000000000,347.0000000000,511.0000000000,140.0000000000,34.0000000000,0.0000000000
1717675105910,295.0000000000,344.0000000000,504.0000000000,140.0000000000,33.0000000000,0.0000000000
1717675105911,293.0000000000,341.0000000000,500.0000000000,139.0000000000,33.0000000000,0.0000000000
1717675105911,291.0000000000,339.0000000000,496.0000000000,137.0000000000,33.0000000000,0.0000000000
1717675105911,289.0000000000,336.0000000000,491.0000000000,137.0000000000,32.0000000000,0.0000000000
1717675105911,287.0000000000,334.0000000000,487.0000000000,136.0000000000,32.0000000000,0.0000000000
1717675105925,285.0000000000,332.0000000000,483.0000000000,135.0000000000,32.0000000000,0.0000000000
1717675105926,284.0000000000,329.0000000000,536.0000000000,135.0000000000,32.0000000000,0.0000000000
1717675105926,280.0000000000,327.0000000000,545.0000000000,134.0000000000,31.0000000000,0.0000000000
1717675105926,280.0000000000,326.0000000000,540.0000000000,133.0000000000,31.0000000000,0.0000000000
1717675105926,278.0000000000,323.0000000000,535.0000000000,132.0000000000,31.0000000000,0.0000000000
1717675105926,275.0000000000,319.0000000000,531.0000000000,131.0000000000,31.0000000000,0.0000000000
1717675105926,273.0000000000,318.0000000000,525.0000000000,131.0000000000,31.0000000000,0.0000000000
1717675105926,271.0000000000,316.0000000000,519.0000000000,130.0000000000,31.0000000000,0.0000000000
1717675105926,270.0000000000,313.0000000000,515.0000000000,128.0000000000,31.0000000000,0.0000000000
1717675105942,268.0000000000,312.0000000000,512.0000000000,127.0000000000,31.0000000000,0.0000000000
1717675105942,266.0000000000,310.0000000000,507.0000000000,127.0000000000,31.0000000000,0.0000000000
1717675105942,264.0000000000,307.0000000000,503.0000000000,127.0000000000,31.0000000000,0.0000000000
1717675105942,263.0000000000,305.0000000000,498.0000000000,126.0000000000,30.0000000000,0.0000000000
1717675105943,321.0000000000,375.0000000000,495.0000000000,125.0000000000,30.0000000000,0.0000000000
1717675105943,321.0000000000,371.0000000000,491.0000000000,124.0000000000,30.0000000000,0.0000000000
1717675105943,319.0000000000,368.0000000000,487.0000000000,124.0000000000,30.0000000000,0.0000000000
1717675105943,316.0000000000,365.0000000000,483.0000000000,123.0000000000,29.0000000000,0.0000000000
1717675105943,313.0000000000,361.0000000000,480.0000000000,123.0000000000,29.0000000000,0.0000000000
1717675105957,311.0000000000,359.0000000000,476.0000000000,121.0000000000,29.0000000000,0.0000000000
1717675105959,308.0000000000,356.0000000000,472.0000000000,120.0000000000,28.0000000000,0.0000000000
1717675105959,306.0000000000,353.0000000000,467.0000000000,120.0000000000,28.0000000000,0.0000000000
1717675105959,304.0000000000,351.0000000000,464.0000000000,120.0000000000,28.0000000000,0.0000000000
1717675105960,302.0000000000,348.0000000000,460.0000000000,119.0000000000,28.0000000000,0.0000000000
1717675105960,300.0000000000,346.0000000000,457.0000000000,134.0000000000,28.0000000000,0.0000000000
1717675105960,297.0000000000,344.0000000000,454.0000000000,133.0000000000,28.0000000000,0.0000000000
1717675105961,295.0000000000,340.0000000000,451.0000000000,132.0000000000,27.0000000000,0.0000000000
1717675105991,293.0000000000,339.0000000000,448.0000000000,131.0000000000,28.0000000000,0.0000000000
1717675105991,291.0000000000,335.0000000000,444.0000000000,131.0000000000,28.0000000000,0.0000000000
1717675105992,289.0000000000,334.0000000000,440.0000000000,129.0000000000,27.0000000000,0.0000000000
1717675105992,287.0000000000,332.0000000000,436.0000000000,129.0000000000,28.0000000000,0.0000000000
1717675105992,285.0000000000,327.0000000000,434.0000000000,127.0000000000,27.0000000000,0.0000000000
1717675105992,283.0000000000,326.0000000000,430.0000000000,127.0000000000,27.0000000000,0.0000000000
1717675105993,281.0000000000,324.0000000000,427.0000000000,126.0000000000,27.0000000000,0.0000000000
1717675105993,280.0000000000,322.0000000000,423.0000000000,126.0000000000,26.0000000000,0.0000000000
1717675105993,278.0000000000,319.0000000000,422.0000000000,124.0000000000,27.0000000000,0.0000000000
1717675105993,275.0000000000,318.0000000000,419.0000000000,123.0000000000,26.0000000000,0.0000000000
1717675105993,274.0000000000,316.0000000000,415.0000000000,123.0000000000,26.0000000000,0.0000000000
1717675105994,271.0000000000,313.0000000000,412.0000000000,122.0000000000,26.0000000000,0.0000000000
1717675105994,270.0000000000,312.0000000000,409.0000000000,121.0000000000,25.0000000000,0.0000000000
1717675105994,268.0000000000,310.0000000000,408.0000000000,120.0000000000,26.0000000000,0.0000000000
1717675105994,267.0000000000,307.0000000000,403.0000000000,120.0000000000,25.0000000000,0.0000000000
1717675105995,264.0000000000,305.0000000000,401.0000000000,120.0000000000,25.0000000000,0.0000000000
1717675105995,263.0000000000,303.0000000000,399.0000000000,118.0000000000,25.0000000000,0.0000000000
1717675105995,261.0000000000,301.0000000000,396.0000000000,118.0000000000,25.0000000000,0.0000000000
1717675105996,259.0000000000,300.0000000000,392.0000000000,117.0000000000,24.0000000000,0.0000000000
1717675105996,313.0000000000,297.0000000000,391.0000000000,116.0000000000,24.0000000000,0.0000000000
1717675106013,360.0000000000,295.0000000000,388.0000000000,115.0000000000,24.0000000000,0.0000000000
1717675106014,358.0000000000,294.0000000000,385.0000000000,115.0000000000,24.0000000000,0.0000000000
1717675106014,354.0000000000,292.0000000000,384.0000000000,114.0000000000,24.0000000000,0.0000000000
1717675106015,352.0000000000,290.0000000000,501.0000000000,113.0000000000,24.0000000000,0.0000000000
1717675106015,348.0000000000,292.0000000000,499.0000000000,113.0000000000,24.0000000000,0.0000000000
1717675106015,345.0000000000,290.0000000000,495.0000000000,112.0000000000,24.0000000000,0.0000000000
1717675106015,343.0000000000,288.0000000000,489.0000000000,112.0000000000,24.0000000000,0.0000000000
1717675106015,340.0000000000,287.0000000000,486.0000000000,111.0000000000,24.0000000000,0.0000000000
1717675106015,337.0000000000,285.0000000000,482.0000000000,110.0000000000,23.0000000000,0.0000000000
1717675106029,359.0000000000,283.0000000000,478.0000000000,110.0000000000,24.0000000000,0.0000000000
1717675106030,375.0000000000,280.0000000000,473.0000000000,109.0000000000,23.0000000000,0.0000000000
1717675106031,371.0000000000,280.0000000000,470.0000000000,108.0000000000,23.0000000000,0.0000000000
1717675106031,368.0000000000,278.0000000000,465.0000000000,108.0000000000,24.0000000000,0.0000000000
1717675106031,365.0000000000,275.0000000000,463.0000000000,107.0000000000,22.0000000000,0.0000000000
1717675106031,361.0000000000,273.0000000000,459.0000000000,105.0000000000,23.0000000000,0.0000000000
1717675106032,359.0000000000,272.0000000000,462.0000000000,105.0000000000,23.0000000000,0.0000000000
1717675106032,433.0000000000,285.0000000000,487.0000000000,105.0000000000,22.0000000000,0.0000000000
1717675106032,480.0000000000,283.0000000000,484.0000000000,103.0000000000,23.0000000000,0.0000000000
1717675106032,475.0000000000,280.0000000000,480.0000000000,103.0000000000,22.0000000000,0.0000000000
1717675106032,470.0000000000,279.0000000000,476.0000000000,103.0000000000,22.0000000000,0.0000000000
1717675106046,465.0000000000,276.0000000000,472.0000000000,103.0000000000,22.0000000000,0.0000000000
1717675106047,461.0000000000,275.0000000000,468.0000000000,102.0000000000,22.0000000000,0.0000000000
1717675106047,456.0000000000,272.0000000000,464.0000000000,102.0000000000,22.0000000000,0.0000000000
1717675106048,453.0000000000,271.0000000000,460.0000000000,101.0000000000,45.0000000000,0.0000000000
1717675106048,449.0000000000,269.0000000000,456.0000000000,100.0000000000,47.0000000000,0.0000000000
1717675106048,446.0000000000,268.0000000000,454.0000000000,99.0000000000,47.0000000000,0.0000000000
1717675106048,441.0000000000,265.0000000000,449.0000000000,99.0000000000,46.0000000000,0.0000000000
1717675106048,438.0000000000,264.0000000000,446.0000000000,99.0000000000,46.0000000000,0.0000000000
1717675106048,434.0000000000,263.0000000000,444.0000000000,98.0000000000,46.0000000000,0.0000000000
1717675106064,432.0000000000,262.0000000000,440.0000000000,97.0000000000,45.0000000000,0.0000000000
1717675106066,428.0000000000,347.0000000000,438.0000000000,97.0000000000,45.0000000000,0.0000000000
1717675106067,424.0000000000,344.0000000000,433.0000000000,96.0000000000,44.0000000000,0.0000000000
1717675106067,463.0000000000,341.0000000000,431.0000000000,96.0000000000,44.0000000000,0.0000000000
1717675106067,460.0000000000,338.0000000000,428.0000000000,95.0000000000,44.0000000000,0.0000000000
1717675106067,455.0000000000,335.0000000000,423.0000000000,95.0000000000,44.0000000000,0.0000000000
1717675106067,451.0000000000,333.0000000000,422.0000000000,94.0000000000,44.0000000000,0.0000000000
1717675106068,448.0000000000,331.0000000000,419.0000000000,94.0000000000,43.0000000000,0.0000000000
1717675106069,444.0000000000,327.0000000000,415.0000000000,94.0000000000,43.0000000000,0.0000000000
1717675106069,440.0000000000,326.0000000000,412.0000000000,93.0000000000,43.0000000000,0.0000000000
1717675106069,436.0000000000,324.0000000000,409.0000000000,92.0000000000,42.0000000000,0.0000000000
1717675106099,433.0000000000,321.0000000000,408.0000000000,92.0000000000,42.0000000000,0.0000000000
1717675106100,430.0000000000,319.0000000000,404.0000000000,92.0000000000,42.0000000000,0.0000000000
1717675106100,427.0000000000,318.0000000000,401.0000000000,91.0000000000,41.0000000000,0.0000000000
1717675106100,423.0000000000,316.0000000000,399.0000000000,91.0000000000,41.0000000000,0.0000000000
1717675106100,419.0000000000,313.0000000000,396.0000000000,90.0000000000,41.0000000000,0.0000000000
1717675106100,417.0000000000,312.0000000000,394.0000000000,89.0000000000,41.0000000000,0.0000000000
1717675106101,414.0000000000,309.0000000000,391.0000000000,89.0000000000,39.0000000000,0.0000000000
1717675106101,410.0000000000,307.0000000000,402.0000000000,88.0000000000,40.0000000000,0.0000000000
1717675106101,408.0000000000,305.0000000000,399.0000000000,88.0000000000,39.0000000000,0.0000000000
1717675106101,404.0000000000,303.0000000000,396.0000000000,88.0000000000,39.0000000000,0.0000000000
1717675106101,401.0000000000,301.0000000000,391.0000000000,88.0000000000,39.0000000000,0.0000000000
1717675106101,399.0000000000,300.0000000000,390.0000000000,87.0000000000,39.0000000000,0.0000000000
1717675106102,396.0000000000,296.0000000000,387.0000000000,86.0000000000,39.0000000000,0.0000000000
1717675106102,392.0000000000,295.0000000000,384.0000000000,86.0000000000,39.0000000000,0.0000000000
1717675106102,390.0000000000,294.0000000000,382.0000000000,86.0000000000,38.0000000000,0.0000000000
1717675106103,387.0000000000,291.0000000000,380.0000000000,84.0000000000,38.0000000000,0.0000000000
1717675106103,384.0000000000,289.0000000000,376.0000000000,84.0000000000,38.0000000000,0.0000000000
1717675106103,382.0000000000,287.0000000000,376.0000000000,83.0000000000,38.0000000000,0.0000000000
1717675106103,379.0000000000,286.0000000000,372.0000000000,83.0000000000,38.0000000000,0.0000000000
1717675106120,376.0000000000,284.0000000000,370.0000000000,83.0000000000,37.0000000000,0.0000000000
1717675106121,374.0000000000,283.0000000000,368.0000000000,83.0000000000,37.0000000000,0.0000000000
1717675106121,371.0000000000,280.0000000000,365.0000000000,82.0000000000,38.0000000000,0.0000000000
1717675106121,369.0000000000,279.0000000000,364.0000000000,81.0000000000,36.0000000000,0.0000000000
1717675106121,366.0000000000,278.0000000000,361.0000000000,81.0000000000,36.0000000000,0.0000000000
1717675106121,364.0000000000,275.0000000000,359.0000000000,81.0000000000,36.0000000000,0.0000000000
1717675106121,361.0000000000,274.0000000000,357.0000000000,80.0000000000,35.0000000000,0.0000000000
1717675106122,359.0000000000,272.0000000000,355.0000000000,80.0000000000,36.0000000000,0.0000000000
1717675106122,357.0000000000,344.0000000000,353.0000000000,79.0000000000,35.0000000000,0.0000000000
1717675106122,355.0000000000,340.0000000000,351.0000000000,79.0000000000,35.0000000000,0.0000000000
1717675106122,352.0000000000,337.0000000000,348.0000000000,79.0000000000,35.0000000000,0.0000000000
1717675106136,350.0000000000,335.0000000000,347.0000000000,78.0000000000,35.0000000000,0.0000000000
1717675106137,348.0000000000,332.0000000000,344.0000000000,78.0000000000,35.0000000000,0.0000000000
1717675106137,345.0000000000,329.0000000000,343.0000000000,119.0000000000,34.0000000000,0.0000000000
1717675106137,344.0000000000,327.0000000000,339.0000000000,152.0000000000,34.0000000000,0.0000000000
1717675106137,340.0000000000,325.0000000000,338.0000000000,150.0000000000,33.0000000000,0.0000000000
1717675106137,338.0000000000,323.0000000000,335.0000000000,148.0000000000,34.0000000000,0.0000000000
1717675106137,335.0000000000,319.0000000000,334.0000000000,147.0000000000,33.0000000000,0.0000000000
1717675106154,334.0000000000,319.0000000000,332.0000000000,147.0000000000,33.0000000000,0.0000000000
1717675106155,332.0000000000,316.0000000000,330.0000000000,146.0000000000,33.0000000000,0.0000000000
1717675106155,329.0000000000,313.0000000000,327.0000000000,144.0000000000,32.0000000000,0.0000000000
1717675106156,327.0000000000,312.0000000000,326.0000000000,143.0000000000,33.0000000000,0.0000000000
1717675106156,326.0000000000,310.0000000000,324.0000000000,143.0000000000,31.0000000000,0.0000000000
1717675106156,323.0000000000,307.0000000000,322.0000000000,142.0000000000,31.0000000000,0.0000000000
1717675106156,321.0000000000,305.0000000000,319.0000000000,141.0000000000,31.0000000000,0.0000000000
1717675106157,319.0000000000,302.0000000000,318.0000000000,140.0000000000,32.0000000000,0.0000000000
1717675106157,316.0000000000,301.0000000000,316.0000000000,139.0000000000,31.0000000000,0.0000000000
1717675106157,315.0000000000,299.0000000000,315.0000000000,139.0000000000,31.0000000000,0.0000000000
1717675106158,313.0000000000,296.0000000000,312.0000000000,137.0000000000,31.0000000000,0.0000000000
1717675106189,311.0000000000,295.0000000000,311.0000000000,135.0000000000,31.0000000000,0.0000000000
1717675106190,308.0000000000,292.0000000000,308.0000000000,135.0000000000,31.0000000000,0.0000000000
1717675106190,307.0000000000,291.0000000000,307.0000000000,135.0000000000,31.0000000000,0.0000000000
1717675106190,305.0000000000,289.0000000000,305.0000000000,134.0000000000,31.0000000000,0.0000000000
1717675106190,303.0000000000,287.0000000000,356.0000000000,133.0000000000,31.0000000000,0.0000000000
1717675106190,368.0000000000,286.0000000000,428.0000000000,131.0000000000,30.0000000000,0.0000000000
1717675106191,364.0000000000,283.0000000000,423.0000000000,131.0000000000,30.0000000000,0.0000000000
1717675106191,359.0000000000,281.0000000000,420.0000000000,130.0000000000,30.0000000000,0.0000000000
1717675106191,358.0000000000,280.0000000000,417.0000000000,131.0000000000,30.0000000000,0.0000000000
1717675106191,354.0000000000,278.0000000000,414.0000000000,149.0000000000,29.0000000000,0.0000000000
1717675106191,352.0000000000,275.0000000000,411.0000000000,147.0000000000,28.0000000000,0.0000000000
1717675106191,349.0000000000,274.0000000000,408.0000000000,147.0000000000,29.0000000000,0.0000000000
1717675106191,346.0000000000,272.0000000000,404.0000000000,145.0000000000,29.0000000000,0.0000000000
1717675106192,344.0000000000,271.0000000000,401.0000000000,145.0000000000,28.0000000000,0.0000000000
1717675106192,341.0000000000,338.0000000000,398.0000000000,143.0000000000,28.0000000000,0.0000000000
1717675106192,339.0000000000,334.0000000000,394.0000000000,142.0000000000,28.0000000000,0.0000000000
1717675106192,335.0000000000,332.0000000000,391.0000000000,142.0000000000,28.0000000000,0.0000000000
1717675106192,334.0000000000,327.0000000000,389.0000000000,169.0000000000,28.0000000000,0.0000000000
1717675106192,331.0000000000,327.0000000000,386.0000000000,188.0000000000,28.0000000000,0.0000000000
1717675106212,327.0000000000,324.0000000000,384.0000000000,186.0000000000,27.0000000000,0.0000000000
1717675106214,326.0000000000,321.0000000000,380.0000000000,184.0000000000,27.0000000000,0.0000000000
1717675106214,323.0000000000,319.0000000000,377.0000000000,183.0000000000,27.0000000000,0.0000000000
1717675106214,321.0000000000,317.0000000000,375.0000000000,182.0000000000,27.0000000000,0.0000000000
1717675106214,319.0000000000,315.0000000000,372.0000000000,180.0000000000,27.0000000000,0.0000000000
1717675106214,317.0000000000,312.0000000000,370.0000000000,179.0000000000,27.0000000000,0.0000000000
1717675106215,315.0000000000,310.0000000000,368.0000000000,178.0000000000,27.0000000000,0.0000000000
1717675106215,312.0000000000,308.0000000000,364.0000000000,177.0000000000,27.0000000000,0.0000000000
1717675106215,310.0000000000,306.0000000000,361.0000000000,176.0000000000,26.0000000000,0.0000000000
1717675106215,307.0000000000,304.0000000000,359.0000000000,174.0000000000,25.0000000000,0.0000000000
1717675106216,305.0000000000,319.0000000000,358.0000000000,173.0000000000,25.0000000000,0.0000000000
1717675106216,304.0000000000,318.0000000000,355.0000000000,172.0000000000,25.0000000000,0.0000000000
1717675106217,302.0000000000,316.0000000000,352.0000000000,171.0000000000,25.0000000000,0.0000000000
1717675106218,300.0000000000,312.0000000000,380.0000000000,170.0000000000,25.0000000000,0.0000000000
1717675106235,298.0000000000,310.0000000000,376.0000000000,167.0000000000,25.0000000000,0.0000000000
1717675106236,295.0000000000,308.0000000000,373.0000000000,167.0000000000,25.0000000000,0.0000000000
1717675106236,294.0000000000,306.0000000000,371.0000000000,167.0000000000,24.0000000000,0.0000000000
1717675106236,292.0000000000,304.0000000000,368.0000000000,166.0000000000,24.0000000000,0.0000000000
1717675106236,291.0000000000,302.0000000000,366.0000000000,164.0000000000,24.0000000000,0.0000000000
1717675106236,289.0000000000,300.0000000000,363.0000000000,163.0000000000,24.0000000000,0.0000000000
1717675106236,287.0000000000,297.0000000000,359.0000000000,162.0000000000,24.0000000000,0.0000000000
1717675106237,285.0000000000,295.0000000000,358.0000000000,161.0000000000,24.0000000000,0.0000000000
1717675106237,284.0000000000,293.0000000000,355.0000000000,159.0000000000,24.0000000000,0.0000000000
1717675106237,281.0000000000,291.0000000000,352.0000000000,159.0000000000,24.0000000000,0.0000000000
1717675106253,280.0000000000,289.0000000000,350.0000000000,159.0000000000,24.0000000000,0.0000000000
1717675106254,279.0000000000,287.0000000000,348.0000000000,157.0000000000,24.0000000000,0.0000000000
1717675106254,276.0000000000,286.0000000000,345.0000000000,156.0000000000,24.0000000000,0.0000000000
1717675106254,275.0000000000,284.0000000000,343.0000000000,155.0000000000,24.0000000000,0.0000000000
1717675106254,273.0000000000,283.0000000000,340.0000000000,155.0000000000,24.0000000000,0.0000000000
1717675106254,271.0000000000,280.0000000000,348.0000000000,153.0000000000,23.0000000000,0.0000000000
1717675106254,270.0000000000,278.0000000000,345.0000000000,152.0000000000,23.0000000000,0.0000000000
1717675106255,268.0000000000,275.0000000000,343.0000000000,152.0000000000,23.0000000000,0.0000000000
1717675106255,267.0000000000,275.0000000000,339.0000000000,151.0000000000,23.0000000000,0.0000000000
1717675106275,265.0000000000,273.0000000000,337.0000000000,150.0000000000,23.0000000000,0.0000000000
1717675106276,263.0000000000,271.0000000000,335.0000000000,148.0000000000,23.0000000000,0.0000000000
1717675106276,262.0000000000,270.0000000000,333.0000000000,147.0000000000,23.0000000000,0.0000000000
1717675106276,260.0000000000,268.0000000000,331.0000000000,147.0000000000,22.0000000000,0.0000000000
1717675106276,259.0000000000,266.0000000000,329.0000000000,146.0000000000,35.0000000000,0.0000000000
1717675106276,257.0000000000,263.0000000000,327.0000000000,145.0000000000,35.0000000000,0.0000000000
1717675106276,255.0000000000,263.0000000000,324.0000000000,144.0000000000,35.0000000000,0.0000000000
1717675106276,255.0000000000,261.0000000000,322.0000000000,143.0000000000,35.0000000000,0.0000000000
1717675106276,253.0000000000,259.0000000000,319.0000000000,143.0000000000,35.0000000000,0.0000000000
1717675106276,333.0000000000,292.0000000000,319.0000000000,142.0000000000,34.0000000000,0.0000000000
1717675106276,509.0000000000,289.0000000000,316.0000000000,140.0000000000,34.0000000000,0.0000000000
1717675106294,536.0000000000,287.0000000000,315.0000000000,140.0000000000,34.0000000000,0.0000000000
1717675106294,529.0000000000,285.0000000000,312.0000000000,140.0000000000,33.0000000000,0.0000000000
1717675106295,524.0000000000,283.0000000000,312.0000000000,138.0000000000,33.0000000000,0.0000000000
1717675106295,519.0000000000,280.0000000000,308.0000000000,137.0000000000,33.0000000000,0.0000000000
1717675106295,514.0000000000,279.0000000000,307.0000000000,135.0000000000,33.0000000000,0.0000000000
1717675106295,509.0000000000,277.0000000000,304.0000000000,135.0000000000,32.0000000000,0.0000000000
1717675106295,504.0000000000,280.0000000000,303.0000000000,135.0000000000,32.0000000000,0.0000000000
1717675106295,499.0000000000,278.0000000000,302.0000000000,134.0000000000,31.0000000000,0.0000000000
1717675106295,495.0000000000,276.0000000000,299.0000000000,133.0000000000,31.0000000000,0.0000000000
1717675106296,491.0000000000,275.0000000000,297.0000000000,133.0000000000,31.0000000000,0.0000000000
1717675106296,486.0000000000,271.0000000000,295.0000000000,131.0000000000,31.0000000000,0.0000000000
1717675106309,481.0000000000,271.0000000000,295.0000000000,131.0000000000,31.0000000000,0.0000000000
1717675106310,479.0000000000,396.0000000000,292.0000000000,130.0000000000,30.0000000000,0.0000000000
1717675106311,474.0000000000,395.0000000000,291.0000000000,129.0000000000,31.0000000000,0.0000000000
1717675106311,470.0000000000,391.0000000000,289.0000000000,129.0000000000,31.0000000000,0.0000000000
1717675106311,466.0000000000,387.0000000000,288.0000000000,127.0000000000,31.0000000000,0.0000000000
1717675106312,462.0000000000,384.0000000000,287.0000000000,127.0000000000,30.0000000000,0.0000000000
1717675106312,459.0000000000,382.0000000000,284.0000000000,126.0000000000,30.0000000000,0.0000000000
1717675106313,455.0000000000,377.0000000000,283.0000000000,126.0000000000,30.0000000000,0.0000000000
1717675106314,451.0000000000,376.0000000000,281.0000000000,124.0000000000,30.0000000000,0.0000000000
1717675106315,448.0000000000,371.0000000000,280.0000000000,124.0000000000,30.0000000000,0.0000000000
1717675106315,444.0000000000,369.0000000000,279.0000000000,124.0000000000,29.0000000000,0.0000000000
1717675106346,440.0000000000,367.0000000000,276.0000000000,123.0000000000,29.0000000000,0.0000000000
1717675106347,437.0000000000,364.0000000000,275.0000000000,123.0000000000,29.0000000000,0.0000000000
1717675106347,433.0000000000,361.0000000000,289.0000000000,121.0000000000,28.0000000000,0.0000000000
1717675106347,430.0000000000,359.0000000000,353.0000000000,123.0000000000,28.0000000000,0.0000000000
1717675106347,427.0000000000,355.0000000000,348.0000000000,123.0000000000,28.0000000000,0.0000000000
1717675106348,423.0000000000,353.0000000000,345.0000000000,121.0000000000,28.0000000000,0.0000000000
1717675106348,420.0000000000,350.0000000000,344.0000000000,120.0000000000,28.0000000000,0.0000000000
1717675106348,417.0000000000,348.0000000000,340.0000000000,120.0000000000,28.0000000000,0.0000000000
1717675106348,414.0000000000,345.0000000000,337.0000000000,119.0000000000,27.0000000000,0.0000000000
1717675106348,411.0000000000,344.0000000000,335.0000000000,119.0000000000,27.0000000000,0.0000000000
1717675106348,408.0000000000,340.0000000000,333.0000000000,118.0000000000,27.0000000000,0.0000000000
1717675106348,404.0000000000,339.0000000000,331.0000000000,117.0000000000,27.0000000000,0.0000000000
1717675106349,401.0000000000,337.0000000000,327.0000000000,116.0000000000,27.0000000000,0.0000000000
1717675106349,399.0000000000,334.0000000000,326.0000000000,115.0000000000,27.0000000000,0.0000000000
1717675106350,396.0000000000,332.0000000000,324.0000000000,115.0000000000,27.0000000000,0.0000000000
1717675106350,393.0000000000,329.0000000000,321.0000000000,114.0000000000,25.0000000000,0.0000000000
1717675106350,391.0000000000,327.0000000000,319.0000000000,114.0000000000,26.0000000000,0.0000000000
1717675106350,387.0000000000,325.0000000000,333.0000000000,113.0000000000,25.0000000000,0.0000000000
1717675106366,384.0000000000,323.0000000000,331.0000000000,113.0000000000,25.0000000000,0.0000000000
1717675106367,382.0000000000,319.0000000000,327.0000000000,112.0000000000,25.0000000000,0.0000000000
1717675106367,380.0000000000,319.0000000000,326.0000000000,111.0000000000,25.0000000000,0.0000000000
1717675106368,376.0000000000,316.0000000000,323.0000000000,110.0000000000,24.0000000000,0.0000000000
1717675106368,374.0000000000,314.0000000000,321.0000000000,110.0000000000,24.0000000000,0.0000000000
1717675106369,371.0000000000,312.0000000000,319.0000000000,109.0000000000,27.0000000000,0.0000000000
1717675106369,368.0000000000,311.0000000000,316.0000000000,109.0000000000,27.0000000000,0.0000000000
1717675106369,366.0000000000,308.0000000000,314.0000000000,108.0000000000,27.0000000000,0.0000000000
1717675106370,364.0000000000,306.0000000000,312.0000000000,107.0000000000,27.0000000000,0.0000000000
1717675106370,360.0000000000,304.0000000000,310.0000000000,107.0000000000,26.0000000000,0.0000000000
1717675106393,359.0000000000,303.0000000000,307.0000000000,107.0000000000,25.0000000000,0.0000000000
1717675106396,356.0000000000,300.0000000000,305.0000000000,105.0000000000,25.0000000000,0.0000000000
1717675106396,354.0000000000,298.0000000000,304.0000000000,105.0000000000,25.0000000000,0.0000000000
1717675106396,352.0000000000,295.0000000000,302.0000000000,104.0000000000,25.0000000000,0.0000000000
1717675106397,349.0000000000,295.0000000000,300.0000000000,103.0000000000,25.0000000000,0.0000000000
1717675106397,347.0000000000,293.0000000000,298.0000000000,103.0000000000,25.0000000000,0.0000000000
1717675106398,344.0000000000,291.0000000000,295.0000000000,103.0000000000,24.0000000000,0.0000000000
1717675106398,342.0000000000,289.0000000000,294.0000000000,102.0000000000,24.0000000000,0.0000000000
1717675106399,339.0000000000,294.0000000000,292.0000000000,103.0000000000,24.0000000000,0.0000000000
1717675106399,345.0000000000,291.0000000000,291.0000000000,103.0000000000,24.0000000000,0.0000000000
1717675106399,536.0000000000,323.0000000000,348.0000000000,103.0000000000,24.0000000000,0.0000000000
1717675106399,527.0000000000,319.0000000000,345.0000000000,102.0000000000,24.0000000000,0.0000000000
1717675106400,521.0000000000,317.0000000000,343.0000000000,102.0000000000,24.0000000000,0.0000000000
1717675106400,515.0000000000,316.0000000000,339.0000000000,100.0000000000,24.0000000000,0.0000000000
1717675106401,511.0000000000,313.0000000000,337.0000000000,99.0000000000,24.0000000000,0.0000000000
1717675106402,507.0000000000,310.0000000000,335.0000000000,99.0000000000,24.0000000000,0.0000000000
1717675106402,503.0000000000,308.0000000000,332.0000000000,99.0000000000,24.0000000000,0.0000000000
1717675106402,498.0000000000,307.0000000000,331.0000000000,98.0000000000,31.0000000000,0.0000000000
1717675106425,494.0000000000,304.0000000000,327.0000000000,98.0000000000,31.0000000000,0.0000000000
1717675106426,489.0000000000,303.0000000000,326.0000000000,97.0000000000,30.0000000000,0.0000000000
1717675106426,486.0000000000,300.0000000000,324.0000000000,97.0000000000,30.0000000000,0.0000000000
1717675106426,481.0000000000,299.0000000000,356.0000000000,96.0000000000,30.0000000000,0.0000000000
1717675106426,478.0000000000,295.0000000000,353.0000000000,96.0000000000,30.0000000000,0.0000000000
1717675106427,473.0000000000,295.0000000000,350.0000000000,95.0000000000,29.0000000000,0.0000000000
1717675106427,470.0000000000,292.0000000000,348.0000000000,94.0000000000,29.0000000000,0.0000000000
1717675106427,466.0000000000,290.0000000000,345.0000000000,94.0000000000,29.0000000000,0.0000000000
1717675106427,462.0000000000,288.0000000000,343.0000000000,94.0000000000,29.0000000000,0.0000000000
1717675106427,459.0000000000,287.0000000000,340.0000000000,93.0000000000,29.0000000000,0.0000000000
1717675106427,455.0000000000,286.0000000000,337.0000000000,93.0000000000,28.0000000000,0.0000000000
1717675106428,451.0000000000,283.0000000000,335.0000000000,92.0000000000,29.0000000000,0.0000000000
1717675106428,448.0000000000,281.0000000000,333.0000000000,103.0000000000,28.0000000000,0.0000000000
1717675106428,444.0000000000,280.0000000000,331.0000000000,110.0000000000,28.0000000000,0.0000000000
1717675106447,441.0000000000,278.0000000000,335.0000000000,109.0000000000,28.0000000000,0.0000000000
1717675106448,438.0000000000,275.0000000000,332.0000000000,108.0000000000,28.0000000000,0.0000000000
1717675106448,434.0000000000,275.0000000000,329.0000000000,107.0000000000,28.0000000000,0.0000000000
1717675106448,430.0000000000,273.0000000000,327.0000000000,109.0000000000,28.0000000000,0.0000000000
1717675106448,427.0000000000,271.0000000000,326.0000000000,108.0000000000,27.0000000000,0.0000000000
1717675106448,423.0000000000,269.0000000000,323.0000000000,108.0000000000,28.0000000000,0.0000000000
1717675106448,421.0000000000,268.0000000000,321.0000000000,107.0000000000,27.0000000000,0.0000000000
1717675106448,417.0000000000,267.0000000000,319.0000000000,105.0000000000,27.0000000000,0.0000000000
1717675106449,414.0000000000,263.0000000000,316.0000000000,105.0000000000,27.0000000000,0.0000000000
1717675106449,411.0000000000,263.0000000000,315.0000000000,104.0000000000,27.0000000000,0.0000000000
1717675106449,408.0000000000,261.0000000000,312.0000000000,103.0000000000,27.0000000000,0.0000000000
1717675106463,404.0000000000,260.0000000000,311.0000000000,143.0000000000,25.0000000000,0.0000000000
1717675106464,401.0000000000,258.0000000000,308.0000000000,184.0000000000,26.0000000000,0.0000000000
1717675106464,399.0000000000,255.0000000000,306.0000000000,182.0000000000,26.0000000000,0.0000000000
1717675106464,396.0000000000,255.0000000000,304.0000000000,180.0000000000,26.0000000000,0.0000000000
1717675106464,393.0000000000,254.0000000000,302.0000000000,179.0000000000,26.0000000000,0.0000000000
1717675106464,390.0000000000,252.0000000000,300.0000000000,177.0000000000,26.0000000000,0.0000000000
1717675106464,387.0000000000,251.0000000000,299.0000000000,177.0000000000,27.0000000000,0.0000000000
1717675106464,384.0000000000,249.0000000000,296.0000000000,175.0000000000,27.0000000000,0.0000000000
1717675106464,382.0000000000,248.0000000000,294.0000000000,175.0000000000,27.0000000000,0.0000000000
1717675106479,379.0000000000,247.0000000000,292.0000000000,173.0000000000,26.0000000000,0.0000000000
1717675106480,376.0000000000,245.0000000000,290.0000000000,172.0000000000,25.0000000000,0.0000000000
1717675106481,374.0000000000,243.0000000000,288.0000000000,170.0000000000,26.0000000000,0.0000000000
1717675106481,371.0000000000,242.0000000000,287.0000000000,169.0000000000,25.0000000000,0.0000000000
1717675106481,368.0000000000,241.0000000000,300.0000000000,168.0000000000,25.0000000000,0.0000000000
1717675106481,366.0000000000,240.0000000000,297.0000000000,167.0000000000,25.0000000000,0.0000000000
1717675106481,364.0000000000,238.0000000000,336.0000000000,166.0000000000,25.0000000000,0.0000000000
1717675106481,361.0000000000,237.0000000000,334.0000000000,165.0000000000,25.0000000000,0.0000000000
1717675106495,359.0000000000,236.0000000000,331.0000000000,163.0000000000,40.0000000000,0.0000000000
1717675106497,356.0000000000,234.0000000000,327.0000000000,163.0000000000,39.0000000000,0.0000000000
1717675106497,354.0000000000,232.0000000000,327.0000000000,162.0000000000,39.0000000000,0.0000000000
1717675106497,352.0000000000,231.0000000000,323.0000000000,161.0000000000,39.0000000000,0.0000000000
1717675106497,349.0000000000,231.0000000000,321.0000000000,159.0000000000,39.0000000000,0.0000000000
1717675106497,419.0000000000,228.0000000000,319.0000000000,159.0000000000,39.0000000000,0.0000000000
1717675106497,415.0000000000,227.0000000000,317.0000000000,158.0000000000,39.0000000000,0.0000000000
1717675106497,411.0000000000,226.0000000000,315.0000000000,157.0000000000,38.0000000000,0.0000000000
1717675106498,408.0000000000,225.0000000000,312.0000000000,156.0000000000,38.0000000000,0.0000000000
1717675106523,403.0000000000,224.0000000000,310.0000000000,155.0000000000,38.0000000000,0.0000000000
1717675106524,400.0000000000,272.0000000000,308.0000000000,153.0000000000,38.0000000000,0.0000000000
1717675106524,398.0000000000,270.0000000000,310.0000000000,152.0000000000,37.0000000000,0.0000000000
1717675106524,393.0000000000,268.0000000000,307.0000000000,152.0000000000,36.0000000000,0.0000000000
1717675106525,391.0000000000,265.0000000000,305.0000000000,151.0000000000,36.0000000000,0.0000000000
1717675106525,387.0000000000,263.0000000000,304.0000000000,150.0000000000,36.0000000000,0.0000000000
1717675106525,385.0000000000,262.0000000000,302.0000000000,148.0000000000,35.0000000000,0.0000000000
1717675106525,382.0000000000,259.0000000000,300.0000000000,148.0000000000,35.0000000000,0.0000000000
1717675106525,379.0000000000,258.0000000000,297.0000000000,147.0000000000,35.0000000000,0.0000000000
1717675106525,376.0000000000,257.0000000000,338.0000000000,147.0000000000,35.0000000000,0.0000000000
1717675106526,372.0000000000,255.0000000000,335.0000000000,145.0000000000,35.0000000000,0.0000000000
1717675106526,370.0000000000,268.0000000000,332.0000000000,144.0000000000,35.0000000000,0.0000000000
1717675106526,368.0000000000,265.0000000000,329.0000000000,143.0000000000,35.0000000000,0.0000000000
1717675106526,364.0000000000,263.0000000000,327.0000000000,143.0000000000,34.0000000000,0.0000000000
1717675106527,361.0000000000,262.0000000000,324.0000000000,142.0000000000,34.0000000000,0.0000000000
1717675106545,359.0000000000,344.0000000000,321.0000000000,141.0000000000,34.0000000000,0.0000000000
1717675106546,356.0000000000,339.0000000000,319.0000000000,140.0000000000,34.0000000000,0.0000000000
1717675106547,353.0000000000,336.0000000000,317.0000000000,139.0000000000,33.0000000000,0.0000000000
1717675106547,352.0000000000,334.0000000000,425.0000000000,139.0000000000,33.0000000000,0.0000000000
1717675106547,396.0000000000,332.0000000000,421.0000000000,137.0000000000,33.0000000000,0.0000000000
1717675106547,400.0000000000,358.0000000000,417.0000000000,137.0000000000,33.0000000000,0.0000000000
1717675106547,397.0000000000,355.0000000000,414.0000000000,135.0000000000,32.0000000000,0.0000000000
1717675106547,394.0000000000,352.0000000000,411.0000000000,207.0000000000,33.0000000000,0.0000000000
1717675106547,391.0000000000,349.0000000000,407.0000000000,217.0000000000,33.0000000000,0.0000000000
1717675106547,387.0000000000,347.0000000000,403.0000000000,216.0000000000,60.0000000000,0.0000000000
1717675106547,384.0000000000,344.0000000000,401.0000000000,214.0000000000,60.0000000000,0.0000000000
1717675106572,381.0000000000,341.0000000000,398.0000000000,211.0000000000,59.0000000000,0.0000000000
1717675106573,377.0000000000,339.0000000000,395.0000000000,210.0000000000,59.0000000000,0.0000000000
1717675106573,375.0000000000,335.0000000000,391.0000000000,209.0000000000,57.0000000000,0.0000000000
1717675106573,371.0000000000,334.0000000000,388.0000000000,207.0000000000,58.0000000000,0.0000000000
1717675106573,369.0000000000,331.0000000000,386.0000000000,206.0000000000,57.0000000000,0.0000000000
1717675106573,366.0000000000,327.0000000000,384.0000000000,204.0000000000,57.0000000000,0.0000000000
1717675106573,364.0000000000,327.0000000000,380.0000000000,203.0000000000,56.0000000000,0.0000000000
1717675106573,359.0000000000,324.0000000000,377.0000000000,201.0000000000,56.0000000000,0.0000000000
1717675106574,358.0000000000,322.0000000000,376.0000000000,199.0000000000,56.0000000000,0.0000000000
1717675106574,355.0000000000,372.0000000000,372.0000000000,199.0000000000,56.0000000000,0.0000000000
1717675106574,352.0000000000,369.0000000000,369.0000000000,198.0000000000,56.0000000000,0.0000000000
1717675106574,350.0000000000,366.0000000000,367.0000000000,196.0000000000,55.0000000000,0.0000000000
1717675106574,348.0000000000,363.0000000000,364.0000000000,195.0000000000,55.0000000000,0.0000000000
1717675106575,345.0000000000,359.0000000000,361.0000000000,193.0000000000,54.0000000000,0.0000000000
1717675106575,343.0000000000,358.0000000000,359.0000000000,193.0000000000,54.0000000000,0.0000000000
1717675106575,340.0000000000,355.0000000000,356.0000000000,192.0000000000,53.0000000000,0.0000000000
1717675106599,338.0000000000,427.0000000000,355.0000000000,190.0000000000,53.0000000000,0.0000000000
1717675106601,335.0000000000,433.0000000000,352.0000000000,188.0000000000,52.0000000000,0.0000000000
1717675106602,334.0000000000,430.0000000000,350.0000000000,188.0000000000,52.0000000000,0.0000000000
1717675106602,332.0000000000,427.0000000000,347.0000000000,187.0000000000,51.0000000000,0.0000000000
1717675106603,329.0000000000,423.0000000000,345.0000000000,184.0000000000,51.0000000000,0.0000000000
1717675106603,327.0000000000,419.0000000000,343.0000000000,184.0000000000,51.0000000000,0.0000000000
1717675106603,325.0000000000,415.0000000000,340.0000000000,183.0000000000,51.0000000000,0.0000000000
1717675106604,323.0000000000,412.0000000000,338.0000000000,182.0000000000,51.0000000000,0.0000000000
1717675106604,321.0000000000,479.0000000000,336.0000000000,180.0000000000,50.0000000000,0.0000000000
1717675106604,319.0000000000,489.0000000000,334.0000000000,179.0000000000,49.0000000000,0.0000000000
1717675106605,317.0000000000,486.0000000000,332.0000000000,178.0000000000,49.0000000000,0.0000000000
1717675106605,315.0000000000,481.0000000000,329.0000000000,177.0000000000,48.0000000000,0.0000000000
1717675106606,312.0000000000,477.0000000000,327.0000000000,176.0000000000,49.0000000000,0.0000000000
1717675106607,312.0000000000,472.0000000000,326.0000000000,175.0000000000,49.0000000000,0.0000000000
1717675106607,309.0000000000,468.0000000000,323.0000000000,174.0000000000,48.0000000000,0.0000000000
1717675106608,307.0000000000,465.0000000000,320.0000000000,173.0000000000,48.0000000000,0.0000000000
1717675106609,305.0000000000,460.0000000000,319.0000000000,172.0000000000,47.0000000000,0.0000000000
1717675106609,303.0000000000,456.0000000000,316.0000000000,171.0000000000,47.0000000000,0.0000000000
1717675106610,302.0000000000,453.0000000000,315.0000000000,169.0000000000,47.0000000000,0.0000000000
1717675106630,300.0000000000,450.0000000000,312.0000000000,168.0000000000,47.0000000000,0.0000000000
1717675106631,297.0000000000,446.0000000000,311.0000000000,167.0000000000,46.0000000000,0.0000000000
1717675106631,295.0000000000,443.0000000000,308.0000000000,167.0000000000,46.0000000000,0.0000000000
1717675106631,294.0000000000,451.0000000000,307.0000000000,166.0000000000,115.0000000000,0.0000000000
1717675106632,292.0000000000,496.0000000000,305.0000000000,164.0000000000,115.0000000000,0.0000000000
1717675106632,291.0000000000,492.0000000000,351.0000000000,163.0000000000,114.0000000000,0.0000000000
1717675106632,332.0000000000,564.0000000000,434.0000000000,163.0000000000,113.0000000000,0.0000000000
1717675106632,358.0000000000,557.0000000000,429.0000000000,161.0000000000,111.0000000000,0.0000000000
1717675106632,353.0000000000,551.0000000000,425.0000000000,160.0000000000,111.0000000000,0.0000000000
1717675106632,351.0000000000,545.0000000000,422.0000000000,159.0000000000,110.0000000000,0.0000000000
1717675106633,348.0000000000,540.0000000000,418.0000000000,159.0000000000,109.0000000000,0.0000000000
1717675106654,344.0000000000,535.0000000000,415.0000000000,157.0000000000,108.0000000000,0.0000000000
1717675106655,342.0000000000,529.0000000000,412.0000000000,156.0000000000,108.0000000000,0.0000000000
1717675106655,339.0000000000,524.0000000000,408.0000000000,155.0000000000,107.0000000000,0.0000000000
1717675106655,335.0000000000,519.0000000000,405.0000000000,155.0000000000,106.0000000000,0.0000000000
1717675106655,334.0000000000,515.0000000000,401.0000000000,153.0000000000,105.0000000000,0.0000000000
1717675106655,331.0000000000,510.0000000000,398.0000000000,152.0000000000,105.0000000000,0.0000000000
1717675106655,328.0000000000,505.0000000000,422.0000000000,152.0000000000,103.0000000000,0.0000000000
1717675106656,326.0000000000,500.0000000000,417.0000000000,151.0000000000,103.0000000000,0.0000000000
1717675106656,323.0000000000,497.0000000000,413.0000000000,150.0000000000,103.0000000000,0.0000000000
1717675106656,321.0000000000,493.0000000000,409.0000000000,148.0000000000,102.0000000000,0.0000000000
1717675106656,318.0000000000,488.0000000000,407.0000000000,148.0000000000,102.0000000000,0.0000000000
1717675106656,316.0000000000,545.0000000000,403.0000000000,147.0000000000,101.0000000000,0.0000000000
1717675106673,313.0000000000,547.0000000000,399.0000000000,147.0000000000,100.0000000000,0.0000000000
1717675106674,312.0000000000,541.0000000000,396.0000000000,145.0000000000,99.0000000000,0.0000000000
1717675106674,309.0000000000,536.0000000000,393.0000000000,144.0000000000,99.0000000000,0.0000000000
1717675106674,307.0000000000,530.0000000000,391.0000000000,143.0000000000,99.0000000000,0.0000000000
1717675106674,305.0000000000,526.0000000000,387.0000000000,143.0000000000,97.0000000000,0.0000000000
1717675106674,303.0000000000,521.0000000000,385.0000000000,142.0000000000,97.0000000000,0.0000000000
1717675106674,300.0000000000,516.0000000000,444.0000000000,141.0000000000,96.0000000000,0.0000000000
1717675106674,299.0000000000,511.0000000000,440.0000000000,140.0000000000,96.0000000000,0.0000000000
1717675106674,296.0000000000,508.0000000000,435.0000000000,140.0000000000,95.0000000000,0.0000000000
1717675106675,295.0000000000,504.0000000000,431.0000000000,139.0000000000,95.0000000000,0.0000000000
1717675106675,293.0000000000,499.0000000000,428.0000000000,137.0000000000,94.0000000000,0.0000000000
1717675106690,331.0000000000,494.0000000000,423.0000000000,137.0000000000,93.0000000000,0.0000000000
1717675106691,327.0000000000,491.0000000000,421.0000000000,135.0000000000,93.0000000000,0.0000000000
1717675106691,323.0000000000,487.0000000000,417.0000000000,135.0000000000,92.0000000000,0.0000000000
1717675106691,321.0000000000,483.0000000000,415.0000000000,135.0000000000,92.0000000000,0.0000000000
1717675106691,319.0000000000,479.0000000000,411.0000000000,134.0000000000,91.0000000000,0.0000000000
1717675106692,317.0000000000,475.0000000000,408.0000000000,134.0000000000,91.0000000000,0.0000000000
1717675106692,314.0000000000,472.0000000000,489.0000000000,132.0000000000,89.0000000000,0.0000000000
1717675106692,312.0000000000,467.0000000000,485.0000000000,131.0000000000,89.0000000000,0.0000000000
1717675106693,380.0000000000,520.0000000000,480.0000000000,131.0000000000,89.0000000000,0.0000000000
1717675106712,376.0000000000,515.0000000000,476.0000000000,130.0000000000,88.0000000000,0.0000000000
1717675106714,372.0000000000,511.0000000000,472.0000000000,129.0000000000,88.0000000000,0.0000000000
1717675106714,369.0000000000,505.0000000000,467.0000000000,129.0000000000,88.0000000000,0.0000000000
1717675106714,366.0000000000,501.0000000000,464.0000000000,127.0000000000,88.0000000000,0.0000000000
1717675106714,363.0000000000,496.0000000000,460.0000000000,127.0000000000,86.0000000000,0.0000000000
1717675106714,359.0000000000,494.0000000000,456.0000000000,126.0000000000,86.0000000000,0.0000000000
1717675106715,358.0000000000,487.0000000000,452.0000000000,126.0000000000,86.0000000000,0.0000000000
1717675106715,354.0000000000,551.0000000000,510.0000000000,125.0000000000,85.0000000000,0.0000000000
1717675106715,352.0000000000,544.0000000000,504.0000000000,124.0000000000,84.0000000000,0.0000000000
1717675106715,348.0000000000,540.0000000000,499.0000000000,124.0000000000,84.0000000000,0.0000000000
1717675106715,347.0000000000,535.0000000000,495.0000000000,123.0000000000,83.0000000000,0.0000000000
1717675106716,423.0000000000,529.0000000000,492.0000000000,123.0000000000,83.0000000000,0.0000000000
1717675106716,478.0000000000,524.0000000000,487.0000000000,121.0000000000,83.0000000000,0.0000000000
1717675106737,472.0000000000,520.0000000000,483.0000000000,121.0000000000,82.0000000000,0.0000000000
1717675106738,468.0000000000,516.0000000000,479.0000000000,160.0000000000,89.0000000000,0.0000000000
1717675106738,463.0000000000,511.0000000000,476.0000000000,159.0000000000,88.0000000000,0.0000000000
1717675106739,460.0000000000,506.0000000000,472.0000000000,156.0000000000,88.0000000000,0.0000000000
1717675106739,455.0000000000,504.0000000000,467.0000000000,156.0000000000,87.0000000000,0.0000000000
1717675106739,451.0000000000,498.0000000000,463.0000000000,155.0000000000,86.0000000000,0.0000000000
1717675106739,448.0000000000,494.0000000000,460.0000000000,153.0000000000,86.0000000000,0.0000000000
1717675106739,444.0000000000,489.0000000000,455.0000000000,152.0000000000,85.0000000000,0.0000000000
1717675106740,440.0000000000,486.0000000000,452.0000000000,152.0000000000,84.0000000000,0.0000000000
1717675106740,436.0000000000,481.0000000000,449.0000000000,151.0000000000,84.0000000000,0.0000000000
1717675106740,433.0000000000,568.0000000000,504.0000000000,150.0000000000,83.0000000000,0.0000000000
1717675106740,430.0000000000,560.0000000000,497.0000000000,148.0000000000,83.0000000000,0.0000000000
1717675106741,426.0000000000,555.0000000000,493.0000000000,147.0000000000,83.0000000000,0.0000000000
1717675106800,423.0000000000,551.0000000000,487.0000000000,147.0000000000,82.0000000000,0.0000000000
1717675106801,419.0000000000,545.0000000000,564.0000000000,146.0000000000,82.0000000000,0.0000000000
1717675106802,415.0000000000,539.0000000000,571.0000000000,145.0000000000,81.0000000000,0.0000000000
1717675106802,412.0000000000,534.0000000000,564.0000000000,143.0000000000,80.0000000000,0.0000000000
1717675106802,409.0000000000,530.0000000000,559.0000000000,143.0000000000,79.0000000000,0.0000000000
1717675106803,406.0000000000,525.0000000000,553.0000000000,142.0000000000,79.0000000000,0.0000000000
1717675106803,403.0000000000,519.0000000000,550.0000000000,142.0000000000,79.0000000000,0.0000000000
1717675106803,399.0000000000,515.0000000000,543.0000000000,140.0000000000,79.0000000000,0.0000000000
1717675106803,396.0000000000,512.0000000000,539.0000000000,139.0000000000,78.0000000000,0.0000000000
1717675106804,394.0000000000,508.0000000000,535.0000000000,139.0000000000,78.0000000000,0.0000000000
1717675106804,489.0000000000,503.0000000000,530.0000000000,137.0000000000,78.0000000000,0.0000000000
1717675106804,483.0000000000,498.0000000000,525.0000000000,137.0000000000,77.0000000000,0.0000000000
1717675106804,480.0000000000,495.0000000000,519.0000000000,135.0000000000,76.0000000000,0.0000000000
1717675106805,475.0000000000,490.0000000000,516.0000000000,135.0000000000,76.0000000000,0.0000000000
1717675106805,470.0000000000,486.0000000000,512.0000000000,134.0000000000,76.0000000000,0.0000000000
1717675106805,465.0000000000,481.0000000000,508.0000000000,134.0000000000,76.0000000000,0.0000000000
1717675106805,462.0000000000,479.0000000000,504.0000000000,132.0000000000,75.0000000000,0.0000000000
1717675106805,458.0000000000,475.0000000000,499.0000000000,131.0000000000,74.0000000000,0.0000000000
1717675106805,455.0000000000,471.0000000000,496.0000000000,131.0000000000,74.0000000000,0.0000000000
1717675106806,450.0000000000,467.0000000000,492.0000000000,130.0000000000,73.0000000000,0.0000000000
1717675106806,447.0000000000,464.0000000000,487.0000000000,129.0000000000,72.0000000000,0.0000000000
1717675106806,443.0000000000,460.0000000000,483.0000000000,128.0000000000,71.0000000000,0.0000000000
1717675106806,440.0000000000,455.0000000000,480.0000000000,127.0000000000,71.0000000000,0.0000000000
1717675106806,487.0000000000,453.0000000000,477.0000000000,127.0000000000,71.0000000000,0.0000000000
1717675106806,639.0000000000,450.0000000000,578.0000000000,131.0000000000,71.0000000000,0.0000000000
1717675106807,630.0000000000,446.0000000000,627.0000000000,131.0000000000,71.0000000000,0.0000000000
1717675106807,622.0000000000,443.0000000000,621.0000000000,129.0000000000,70.0000000000,0.0000000000
1717675106807,615.0000000000,439.0000000000,615.0000000000,128.0000000000,70.0000000000,0.0000000000
1717675106808,609.0000000000,435.0000000000,608.0000000000,128.0000000000,70.0000000000,0.0000000000
1717675106808,603.0000000000,579.0000000000,601.0000000000,127.0000000000,69.0000000000,0.0000000000
1717675106808,596.0000000000,575.0000000000,596.0000000000,127.0000000000,69.0000000000,0.0000000000
1717675106808,591.0000000000,568.0000000000,591.0000000000,126.0000000000,68.0000000000,0.0000000000
1717675106809,585.0000000000,562.0000000000,585.0000000000,124.0000000000,67.0000000000,0.0000000000
1717675106809,579.0000000000,558.0000000000,579.0000000000,124.0000000000,67.0000000000,0.0000000000
1717675106809,574.0000000000,551.0000000000,574.0000000000,123.0000000000,67.0000000000,0.0000000000
1717675106810,568.0000000000,547.0000000000,570.0000000000,123.0000000000,67.0000000000,0.0000000000
1717675106810,563.0000000000,541.0000000000,564.0000000000,121.0000000000,67.0000000000,0.0000000000
1717675106810,557.0000000000,537.0000000000,559.0000000000,121.0000000000,66.0000000000,0.0000000000
1717675106832,551.0000000000,532.0000000000,554.0000000000,120.0000000000,66.0000000000,0.0000000000
1717675106836,547.0000000000,527.0000000000,551.0000000000,120.0000000000,65.0000000000,0.0000000000
1717675106837,542.0000000000,523.0000000000,545.0000000000,119.0000000000,65.0000000000,0.0000000000
1717675106838,537.0000000000,519.0000000000,541.0000000000,134.0000000000,64.0000000000,0.0000000000
1717675106839,532.0000000000,515.0000000000,536.0000000000,143.0000000000,64.0000000000,0.0000000000
1717675106839,527.0000000000,573.0000000000,532.0000000000,141.0000000000,63.0000000000,0.0000000000
1717675106840,523.0000000000,566.0000000000,527.0000000000,140.0000000000,63.0000000000,0.0000000000
1717675106841,518.0000000000,561.0000000000,523.0000000000,140.0000000000,63.0000000000,0.0000000000
1717675106842,514.0000000000,556.0000000000,518.0000000000,139.0000000000,63.0000000000,0.0000000000
1717675106843,510.0000000000,550.0000000000,515.0000000000,137.0000000000,62.0000000000,0.0000000000
1717675106844,514.0000000000,545.0000000000,511.0000000000,136.0000000000,62.0000000000,0.0000000000
1717675106845,595.0000000000,540.0000000000,506.0000000000,135.0000000000,62.0000000000,0.0000000000
1717675106845,589.0000000000,536.0000000000,502.0000000000,135.0000000000,62.0000000000,0.0000000000
1717675106846,583.0000000000,531.0000000000,499.0000000000,134.0000000000,61.0000000000,0.0000000000
1717675106847,577.0000000000,526.0000000000,495.0000000000,133.0000000000,60.0000000000,0.0000000000
1717675106848,572.0000000000,521.0000000000,491.0000000000,131.0000000000,60.0000000000,0.0000000000
1717675106848,566.0000000000,516.0000000000,487.0000000000,131.0000000000,60.0000000000,0.0000000000
1717675106849,560.0000000000,512.0000000000,483.0000000000,130.0000000000,60.0000000000,0.0000000000
1717675106849,554.0000000000,508.0000000000,480.0000000000,129.0000000000,59.0000000000,0.0000000000
1717675106901,549.0000000000,503.0000000000,476.0000000000,129.0000000000,59.0000000000,0.0000000000
1717675106904,543.0000000000,499.0000000000,472.0000000000,127.0000000000,59.0000000000,0.0000000000
1717675106905,539.0000000000,495.0000000000,468.0000000000,127.0000000000,59.0000000000,0.0000000000
1717675106906,534.0000000000,491.0000000000,465.0000000000,126.0000000000,57.0000000000,0.0000000000
1717675106906,529.0000000000,487.0000000000,462.0000000000,126.0000000000,58.0000000000,0.0000000000
1717675106907,524.0000000000,483.0000000000,459.0000000000,125.0000000000,57.0000000000,0.0000000000
1717675106908,519.0000000000,480.0000000000,455.0000000000,124.0000000000,57.0000000000,0.0000000000
1717675106908,515.0000000000,476.0000000000,452.0000000000,123.0000000000,56.0000000000,0.0000000000
1717675106909,511.0000000000,472.0000000000,448.0000000000,123.0000000000,56.0000000000,0.0000000000
1717675106910,506.0000000000,468.0000000000,445.0000000000,121.0000000000,56.0000000000,0.0000000000
1717675106910,502.0000000000,464.0000000000,441.0000000000,121.0000000000,56.0000000000,0.0000000000
1717675106911,497.0000000000,460.0000000000,439.0000000000,120.0000000000,56.0000000000,0.0000000000
1717675106912,494.0000000000,457.0000000000,436.0000000000,228.0000000000,56.0000000000,0.0000000000
1717675106913,489.0000000000,454.0000000000,432.0000000000,225.0000000000,55.0000000000,0.0000000000
1717675106914,485.0000000000,451.0000000000,429.0000000000,224.0000000000,55.0000000000,0.0000000000
1717675106915,481.0000000000,447.0000000000,427.0000000000,221.0000000000,54.0000000000,0.0000000000
1717675106915,478.0000000000,443.0000000000,423.0000000000,220.0000000000,54.0000000000,0.0000000000
1717675106916,473.0000000000,440.0000000000,420.0000000000,218.0000000000,54.0000000000,0.0000000000
1717675106917,470.0000000000,438.0000000000,418.0000000000,216.0000000000,54.0000000000,0.0000000000
1717675106917,467.0000000000,551.0000000000,415.0000000000,215.0000000000,53.0000000000,0.0000000000
1717675106918,463.0000000000,545.0000000000,412.0000000000,213.0000000000,52.0000000000,0.0000000000
1717675106919,459.0000000000,541.0000000000,449.0000000000,212.0000000000,52.0000000000,0.0000000000
1717675106919,455.0000000000,536.0000000000,444.0000000000,211.0000000000,51.0000000000,0.0000000000
1717675106919,451.0000000000,530.0000000000,441.0000000000,209.0000000000,51.0000000000,0.0000000000
1717675106919,448.0000000000,525.0000000000,438.0000000000,207.0000000000,51.0000000000,0.0000000000
1717675106919,445.0000000000,521.0000000000,433.0000000000,206.0000000000,51.0000000000,0.0000000000
1717675106920,441.0000000000,516.0000000000,430.0000000000,205.0000000000,51.0000000000,0.0000000000
1717675106920,438.0000000000,512.0000000000,427.0000000000,204.0000000000,51.0000000000,0.0000000000
1717675106920,435.0000000000,507.0000000000,423.0000000000,201.0000000000,50.0000000000,0.0000000000
1717675106920,432.0000000000,502.0000000000,419.0000000000,201.0000000000,50.0000000000,0.0000000000
1717675106921,428.0000000000,540.0000000000,415.0000000000,199.0000000000,49.0000000000,0.0000000000
1717675106921,424.0000000000,534.0000000000,413.0000000000,199.0000000000,49.0000000000,0.0000000000
1717675106921,452.0000000000,529.0000000000,411.0000000000,196.0000000000,49.0000000000,0.0000000000
1717675106921,548.0000000000,523.0000000000,408.0000000000,195.0000000000,49.0000000000,0.0000000000
1717675106922,542.0000000000,519.0000000000,404.0000000000,195.0000000000,48.0000000000,0.0000000000
1717675106922,536.0000000000,514.0000000000,401.0000000000,193.0000000000,48.0000000000,0.0000000000
1717675106922,531.0000000000,510.0000000000,399.0000000000,192.0000000000,48.0000000000,0.0000000000
1717675106922,526.0000000000,504.0000000000,396.0000000000,191.0000000000,48.0000000000,0.0000000000
1717675106923,521.0000000000,502.0000000000,393.0000000000,190.0000000000,48.0000000000,0.0000000000
1717675106923,516.0000000000,496.0000000000,391.0000000000,188.0000000000,47.0000000000,0.0000000000
1717675106942,512.0000000000,492.0000000000,388.0000000000,188.0000000000,47.0000000000,0.0000000000
1717675106943,507.0000000000,487.0000000000,385.0000000000,185.0000000000,47.0000000000,0.0000000000
1717675106943,502.0000000000,484.0000000000,384.0000000000,185.0000000000,46.0000000000,0.0000000000
1717675106943,498.0000000000,480.0000000000,380.0000000000,184.0000000000,46.0000000000,0.0000000000
1717675106943,493.0000000000,476.0000000000,379.0000000000,183.0000000000,46.0000000000,0.0000000000
1717675106943,489.0000000000,472.0000000000,376.0000000000,181.0000000000,46.0000000000,0.0000000000
1717675106943,485.0000000000,470.0000000000,374.0000000000,180.0000000000,45.0000000000,0.0000000000
1717675106944,481.0000000000,465.0000000000,371.0000000000,179.0000000000,46.0000000000,0.0000000000
1717675106944,477.0000000000,461.0000000000,369.0000000000,178.0000000000,45.0000000000,0.0000000000
1717675106944,473.0000000000,457.0000000000,367.0000000000,177.0000000000,44.0000000000,0.0000000000
1717675106944,470.0000000000,455.0000000000,364.0000000000,176.0000000000,44.0000000000,0.0000000000
1717675106979,465.0000000000,451.0000000000,361.0000000000,175.0000000000,44.0000000000,0.0000000000
1717675106980,461.0000000000,448.0000000000,359.0000000000,174.0000000000,44.0000000000,0.0000000000
1717675106981,457.0000000000,444.0000000000,358.0000000000,172.0000000000,44.0000000000,0.0000000000
1717675106981,454.0000000000,440.0000000000,355.0000000000,172.0000000000,44.0000000000,0.0000000000
1717675106981,450.0000000000,437.0000000000,352.0000000000,171.0000000000,43.0000000000,0.0000000000
1717675106982,505.0000000000,433.0000000000,352.0000000000,169.0000000000,43.0000000000,0.0000000000
1717675106982,705.0000000000,430.0000000000,348.0000000000,168.0000000000,43.0000000000,0.0000000000
1717675106982,694.0000000000,427.0000000000,347.0000000000,167.0000000000,43.0000000000,0.0000000000
1717675106982,684.0000000000,423.0000000000,344.0000000000,167.0000000000,41.0000000000,0.0000000000
1717675106982,676.0000000000,422.0000000000,353.0000000000,166.0000000000,42.0000000000,0.0000000000
1717675106982,668.0000000000,418.0000000000,368.0000000000,164.0000000000,42.0000000000,0.0000000000
1717675106983,662.0000000000,415.0000000000,364.0000000000,163.0000000000,41.0000000000,0.0000000000
1717675106983,654.0000000000,412.0000000000,361.0000000000,163.0000000000,41.0000000000,0.0000000000
1717675106983,647.0000000000,409.0000000000,359.0000000000,161.0000000000,41.0000000000,0.0000000000
1717675106983,639.0000000000,406.0000000000,356.0000000000,160.0000000000,41.0000000000,0.0000000000
1717675106983,633.0000000000,403.0000000000,354.0000000000,159.0000000000,40.0000000000,0.0000000000
1717675106983,627.0000000000,400.0000000000,352.0000000000,159.0000000000,39.0000000000,0.0000000000
1717675106984,621.0000000000,398.0000000000,360.0000000000,158.0000000000,39.0000000000,0.0000000000
1717675106984,614.0000000000,395.0000000000,359.0000000000,157.0000000000,39.0000000000,0.0000000000
1717675106986,608.0000000000,391.0000000000,355.0000000000,156.0000000000,39.0000000000,0.0000000000
1717675106987,602.0000000000,390.0000000000,353.0000000000,155.0000000000,39.0000000000,0.0000000000
1717675106988,596.0000000000,387.0000000000,350.0000000000,153.0000000000,39.0000000000,0.0000000000
1717675106988,591.0000000000,384.0000000000,348.0000000000,153.0000000000,39.0000000000,0.0000000000
1717675106989,584.0000000000,382.0000000000,345.0000000000,152.0000000000,39.0000000000,0.0000000000
1717675107009,579.0000000000,379.0000000000,343.0000000000,152.0000000000,38.0000000000,0.0000000000
1717675107010,574.0000000000,376.0000000000,340.0000000000,151.0000000000,39.0000000000,0.0000000000
1717675107011,569.0000000000,374.0000000000,339.0000000000,150.0000000000,38.0000000000,0.0000000000
1717675107011,563.0000000000,371.0000000000,336.0000000000,148.0000000000,38.0000000000,0.0000000000
1717675107011,559.0000000000,369.0000000000,334.0000000000,147.0000000000,38.0000000000,0.0000000000
1717675107011,553.0000000000,367.0000000000,332.0000000000,147.0000000000,38.0000000000,0.0000000000
1717675107011,548.0000000000,364.0000000000,331.0000000000,146.0000000000,51.0000000000,0.0000000000
1717675107011,543.0000000000,362.0000000000,327.0000000000,145.0000000000,51.0000000000,0.0000000000
1717675107012,539.0000000000,359.0000000000,327.0000000000,144.0000000000,50.0000000000,0.0000000000
1717675107012,534.0000000000,358.0000000000,324.0000000000,143.0000000000,49.0000000000,0.0000000000
1717675107012,529.0000000000,355.0000000000,322.0000000000,143.0000000000,49.0000000000,0.0000000000
1717675107012,524.0000000000,352.0000000000,319.0000000000,142.0000000000,49.0000000000,0.0000000000
1717675107012,520.0000000000,351.0000000000,319.0000000000,141.0000000000,48.0000000000,0.0000000000
1717675107036,515.0000000000,348.0000000000,316.0000000000,140.0000000000,48.0000000000,0.0000000000
1717675107039,512.0000000000,345.0000000000,315.0000000000,140.0000000000,48.0000000000,0.0000000000
1717675107040,507.0000000000,344.0000000000,313.0000000000,139.0000000000,48.0000000000,0.0000000000
1717675107041,504.0000000000,342.0000000000,312.0000000000,138.0000000000,47.0000000000,0.0000000000
1717675107041,499.0000000000,379.0000000000,310.0000000000,137.0000000000,47.0000000000,0.0000000000
1717675107042,495.0000000000,374.0000000000,307.0000000000,135.0000000000,47.0000000000,0.0000000000
1717675107043,491.0000000000,371.0000000000,306.0000000000,135.0000000000,47.0000000000,0.0000000000
1717675107044,487.0000000000,368.0000000000,304.0000000000,135.0000000000,46.0000000000,0.0000000000
1717675107045,483.0000000000,366.0000000000,302.0000000000,134.0000000000,46.0000000000,0.0000000000
1717675107046,480.0000000000,363.0000000000,300.0000000000,134.0000000000,46.0000000000,0.0000000000
1717675107046,476.0000000000,359.0000000000,299.0000000000,132.0000000000,45.0000000000,0.0000000000
1717675107047,472.0000000000,356.0000000000,297.0000000000,132.0000000000,45.0000000000,0.0000000000
1717675107047,467.0000000000,355.0000000000,295.0000000000,166.0000000000,45.0000000000,0.0000000000
1717675107048,465.0000000000,380.0000000000,374.0000000000,164.0000000000,44.0000000000,0.0000000000
1717675107049,543.0000000000,453.0000000000,487.0000000000,163.0000000000,44.0000000000,0.0000000000
1717675107050,537.0000000000,449.0000000000,481.0000000000,161.0000000000,44.0000000000,0.0000000000
1717675107051,531.0000000000,445.0000000000,476.0000000000,160.0000000000,43.0000000000,0.0000000000
1717675107051,527.0000000000,441.0000000000,472.0000000000,159.0000000000,43.0000000000,0.0000000000
1717675107052,521.0000000000,437.0000000000,468.0000000000,158.0000000000,43.0000000000,0.0000000000
1717675107052,516.0000000000,433.0000000000,464.0000000000,157.0000000000,43.0000000000,0.0000000000
1717675107052,511.0000000000,430.0000000000,460.0000000000,156.0000000000,42.0000000000,0.0000000000
1717675107052,507.0000000000,427.0000000000,455.0000000000,156.0000000000,41.0000000000,0.0000000000
1717675107071,502.0000000000,423.0000000000,453.0000000000,154.0000000000,42.0000000000,0.0000000000
1717675107072,497.0000000000,419.0000000000,449.0000000000,153.0000000000,41.0000000000,0.0000000000
1717675107072,494.0000000000,417.0000000000,446.0000000000,152.0000000000,41.0000000000,0.0000000000
1717675107072,489.0000000000,413.0000000000,441.0000000000,152.0000000000,46.0000000000,0.0000000000
1717675107073,484.0000000000,409.0000000000,440.0000000000,150.0000000000,49.0000000000,0.0000000000
1717675107073,480.0000000000,406.0000000000,435.0000000000,149.0000000000,48.0000000000,0.0000000000
1717675107073,476.0000000000,403.0000000000,432.0000000000,148.0000000000,48.0000000000,0.0000000000
1717675107073,472.0000000000,400.0000000000,428.0000000000,147.0000000000,48.0000000000,0.0000000000
1717675107073,468.0000000000,451.0000000000,423.0000000000,146.0000000000,48.0000000000,0.0000000000
1717675107074,463.0000000000,447.0000000000,422.0000000000,145.0000000000,47.0000000000,0.0000000000
1717675107074,460.0000000000,443.0000000000,419.0000000000,144.0000000000,47.0000000000,0.0000000000
1717675107096,602.0000000000,440.0000000000,415.0000000000,143.0000000000,47.0000000000,0.0000000000
1717675107098,658.0000000000,435.0000000000,412.0000000000,143.0000000000,46.0000000000,0.0000000000
1717675107098,650.0000000000,432.0000000000,409.0000000000,142.0000000000,46.0000000000,0.0000000000
1717675107099,643.0000000000,428.0000000000,407.0000000000,141.0000000000,45.0000000000,0.0000000000
1717675107099,636.0000000000,425.0000000000,403.0000000000,140.0000000000,46.0000000000,0.0000000000
1717675107099,628.0000000000,422.0000000000,399.0000000000,140.0000000000,45.0000000000,0.0000000000
1717675107099,622.0000000000,418.0000000000,398.0000000000,138.0000000000,45.0000000000,0.0000000000
1717675107100,615.0000000000,414.0000000000,395.0000000000,137.0000000000,44.0000000000,0.0000000000
1717675107100,609.0000000000,412.0000000000,391.0000000000,135.0000000000,44.0000000000,0.0000000000
1717675107100,603.0000000000,428.0000000000,390.0000000000,135.0000000000,44.0000000000,0.0000000000
1717675107101,688.0000000000,502.0000000000,387.0000000000,135.0000000000,44.0000000000,0.0000000000
1717675107101,679.0000000000,496.0000000000,384.0000000000,134.0000000000,43.0000000000,0.0000000000
1717675107102,671.0000000000,493.0000000000,493.0000000000,133.0000000000,43.0000000000,0.0000000000
1717675107102,664.0000000000,487.0000000000,487.0000000000,132.0000000000,43.0000000000,0.0000000000
1717675107102,657.0000000000,483.0000000000,483.0000000000,131.0000000000,43.0000000000,0.0000000000
1717675107127,649.0000000000,480.0000000000,479.0000000000,131.0000000000,42.0000000000,0.0000000000
1717675107130,643.0000000000,476.0000000000,475.0000000000,130.0000000000,41.0000000000,0.0000000000
1717675107131,636.0000000000,472.0000000000,471.0000000000,129.0000000000,42.0000000000,0.0000000000
1717675107131,629.0000000000,467.0000000000,467.0000000000,129.0000000000,41.0000000000,0.0000000000
1717675107132,623.0000000000,463.0000000000,463.0000000000,127.0000000000,41.0000000000,0.0000000000
1717675107132,615.0000000000,459.0000000000,460.0000000000,127.0000000000,41.0000000000,0.0000000000
1717675107133,610.0000000000,455.0000000000,455.0000000000,126.0000000000,41.0000000000,0.0000000000
1717675107133,604.0000000000,452.0000000000,451.0000000000,126.0000000000,41.0000000000,0.0000000000
1717675107133,599.0000000000,448.0000000000,449.0000000000,125.0000000000,39.0000000000,0.0000000000
1717675107134,592.0000000000,444.0000000000,445.0000000000,124.0000000000,39.0000000000,0.0000000000
1717675107135,587.0000000000,441.0000000000,441.0000000000,124.0000000000,39.0000000000,0.0000000000
1717675107136,581.0000000000,438.0000000000,438.0000000000,123.0000000000,39.0000000000,0.0000000000
1717675107136,575.0000000000,434.0000000000,435.0000000000,122.0000000000,39.0000000000,0.0000000000
1717675107137,570.0000000000,431.0000000000,431.0000000000,121.0000000000,39.0000000000,0.0000000000
1717675107138,564.0000000000,428.0000000000,428.0000000000,121.0000000000,39.0000000000,0.0000000000
1717675107138,560.0000000000,424.0000000000,423.0000000000,120.0000000000,39.0000000000,0.0000000000
1717675107139,555.0000000000,421.0000000000,422.0000000000,119.0000000000,38.0000000000,0.0000000000
1717675107139,549.0000000000,417.0000000000,418.0000000000,119.0000000000,38.0000000000,0.0000000000
1717675107140,545.0000000000,415.0000000000,415.0000000000,118.0000000000,38.0000000000,0.0000000000
1717675107141,540.0000000000,412.0000000000,419.0000000000,118.0000000000,38.0000000000,0.0000000000
1717675107163,536.0000000000,408.0000000000,536.0000000000,116.0000000000,38.0000000000,0.0000000000
1717675107163,531.0000000000,406.0000000000,530.0000000000,116.0000000000,37.0000000000,0.0000000000
1717675107164,526.0000000000,403.0000000000,524.0000000000,115.0000000000,37.0000000000,0.0000000000
1717675107164,521.0000000000,400.0000000000,519.0000000000,115.0000000000,36.0000000000,0.0000000000
1717675107164,516.0000000000,397.0000000000,515.0000000000,114.0000000000,36.0000000000,0.0000000000
1717675107164,512.0000000000,393.0000000000,511.0000000000,113.0000000000,36.0000000000,0.0000000000
1717675107165,508.0000000000,391.0000000000,505.0000000000,119.0000000000,36.0000000000,0.0000000000
1717675107165,504.0000000000,388.0000000000,501.0000000000,118.0000000000,36.0000000000,0.0000000000
1717675107165,499.0000000000,386.0000000000,497.0000000000,118.0000000000,35.0000000000,0.0000000000
1717675107165,496.0000000000,384.0000000000,494.0000000000,116.0000000000,35.0000000000,0.0000000000
1717675107165,492.0000000000,380.0000000000,489.0000000000,115.0000000000,35.0000000000,0.0000000000
1717675107166,487.0000000000,379.0000000000,485.0000000000,115.0000000000,35.0000000000,0.0000000000
1717675107166,483.0000000000,376.0000000000,481.0000000000,114.0000000000,35.0000000000,0.0000000000
1717675107187,480.0000000000,372.0000000000,478.0000000000,113.0000000000,35.0000000000,0.0000000000
1717675107188,478.0000000000,369.0000000000,504.0000000000,113.0000000000,35.0000000000,0.0000000000
1717675107188,555.0000000000,368.0000000000,497.0000000000,112.0000000000,34.0000000000,0.0000000000
1717675107188,548.0000000000,365.0000000000,493.0000000000,111.0000000000,35.0000000000,0.0000000000
1717675107188,543.0000000000,363.0000000000,489.0000000000,142.0000000000,33.0000000000,0.0000000000
1717675107189,537.0000000000,359.0000000000,486.0000000000,141.0000000000,34.0000000000,0.0000000000
1717675107189,532.0000000000,358.0000000000,481.0000000000,140.0000000000,33.0000000000,0.0000000000
1717675107189,527.0000000000,355.0000000000,478.0000000000,155.0000000000,34.0000000000,0.0000000000
1717675107189,523.0000000000,353.0000000000,474.0000000000,188.0000000000,35.0000000000,0.0000000000
1717675107190,518.0000000000,351.0000000000,470.0000000000,186.0000000000,35.0000000000,0.0000000000
1717675107190,512.0000000000,348.0000000000,466.0000000000,185.0000000000,35.0000000000,0.0000000000
1717675107190,508.0000000000,346.0000000000,462.0000000000,184.0000000000,34.0000000000,0.0000000000
1717675107191,504.0000000000,344.0000000000,460.0000000000,182.0000000000,34.0000000000,0.0000000000
1717675107191,499.0000000000,342.0000000000,455.0000000000,180.0000000000,34.0000000000,0.0000000000
1717675107191,494.0000000000,339.0000000000,451.0000000000,179.0000000000,33.0000000000,0.0000000000
1717675107211,489.0000000000,337.0000000000,448.0000000000,179.0000000000,33.0000000000,0.0000000000
1717675107212,486.0000000000,335.0000000000,446.0000000000,177.0000000000,33.0000000000,0.0000000000
1717675107212,481.0000000000,333.0000000000,441.0000000000,176.0000000000,33.0000000000,0.0000000000
1717675107213,478.0000000000,331.0000000000,438.0000000000,175.0000000000,34.0000000000,0.0000000000
1717675107213,474.0000000000,329.0000000000,435.0000000000,174.0000000000,43.0000000000,0.0000000000
1717675107213,470.0000000000,327.0000000000,432.0000000000,172.0000000000,43.0000000000,0.0000000000
1717675107214,466.0000000000,324.0000000000,429.0000000000,171.0000000000,43.0000000000,0.0000000000
1717675107214,462.0000000000,323.0000000000,425.0000000000,170.0000000000,42.0000000000,0.0000000000
1717675107215,459.0000000000,321.0000000000,422.0000000000,169.0000000000,41.0000000000,0.0000000000
1717675107215,455.0000000000,319.0000000000,419.0000000000,167.0000000000,41.0000000000,0.0000000000
1717675107215,451.0000000000,317.0000000000,416.0000000000,167.0000000000,41.0000000000,0.0000000000
1717675107215,448.0000000000,316.0000000000,413.0000000000,166.0000000000,41.0000000000,0.0000000000
1717675107216,445.0000000000,313.0000000000,410.0000000000,164.0000000000,39.0000000000,0.0000000000
1717675107243,441.0000000000,312.0000000000,408.0000000000,163.0000000000,39.0000000000,0.0000000000
1717675107245,439.0000000000,309.0000000000,405.0000000000,163.0000000000,39.0000000000,0.0000000000
1717675107246,435.0000000000,359.0000000000,402.0000000000,161.0000000000,39.0000000000,0.0000000000
1717675107246,432.0000000000,356.0000000000,399.0000000000,160.0000000000,39.0000000000,0.0000000000
1717675107247,428.0000000000,353.0000000000,396.0000000000,159.0000000000,39.0000000000,0.0000000000
1717675107247,425.0000000000,351.0000000000,393.0000000000,158.0000000000,39.0000000000,0.0000000000
1717675107247,423.0000000000,348.0000000000,391.0000000000,158.0000000000,39.0000000000,0.0000000000
1717675107248,419.0000000000,345.0000000000,387.0000000000,156.0000000000,38.0000000000,0.0000000000
1717675107248,415.0000000000,343.0000000000,385.0000000000,156.0000000000,38.0000000000,0.0000000000
1717675107249,413.0000000000,339.0000000000,384.0000000000,155.0000000000,38.0000000000,0.0000000000
1717675107249,411.0000000000,337.0000000000,380.0000000000,153.0000000000,38.0000000000,0.0000000000
1717675107249,408.0000000000,335.0000000000,377.0000000000,153.0000000000,37.0000000000,0.0000000000
1717675107249,404.0000000000,397.0000000000,376.0000000000,152.0000000000,37.0000000000,0.0000000000
1717675107250,401.0000000000,403.0000000000,373.0000000000,151.0000000000,36.0000000000,0.0000000000
1717675107250,399.0000000000,399.0000000000,371.0000000000,150.0000000000,37.0000000000,0.0000000000
1717675107250,396.0000000000,397.0000000000,368.0000000000,149.0000000000,36.0000000000,0.0000000000
1717675107250,393.0000000000,393.0000000000,366.0000000000,147.0000000000,36.0000000000,0.0000000000
1717675107250,391.0000000000,390.0000000000,364.0000000000,147.0000000000,36.0000000000,0.0000000000
1717675107267,388.0000000000,387.0000000000,360.0000000000,147.0000000000,36.0000000000,0.0000000000
1717675107268,385.0000000000,384.0000000000,419.0000000000,156.0000000000,35.0000000000,0.0000000000
1717675107269,383.0000000000,381.0000000000,455.0000000000,154.0000000000,35.0000000000,0.0000000000
1717675107269,380.0000000000,378.0000000000,452.0000000000,152.0000000000,35.0000000000,0.0000000000
1717675107269,377.0000000000,376.0000000000,448.0000000000,152.0000000000,35.0000000000,0.0000000000
1717675107269,376.0000000000,372.0000000000,444.0000000000,151.0000000000,34.0000000000,0.0000000000
1717675107269,372.0000000000,370.0000000000,440.0000000000,167.0000000000,34.0000000000,0.0000000000
1717675107269,369.0000000000,367.0000000000,438.0000000000,196.0000000000,34.0000000000,0.0000000000
1717675107269,368.0000000000,364.0000000000,433.0000000000,195.0000000000,34.0000000000,0.0000000000
1717675107269,365.0000000000,361.0000000000,430.0000000000,193.0000000000,34.0000000000,0.0000000000
1717675107269,363.0000000000,359.0000000000,426.0000000000,192.0000000000,33.0000000000,0.0000000000
1717675107282,359.0000000000,356.0000000000,423.0000000000,191.0000000000,33.0000000000,0.0000000000
1717675107283,376.0000000000,353.0000000000,420.0000000000,189.0000000000,33.0000000000,0.0000000000
1717675107283,371.0000000000,351.0000000000,417.0000000000,188.0000000000,33.0000000000,0.0000000000
1717675107283,368.0000000000,349.0000000000,414.0000000000,187.0000000000,33.0000000000,0.0000000000
1717675107284,366.0000000000,346.0000000000,410.0000000000,185.0000000000,32.0000000000,0.0000000000
1717675107284,363.0000000000,344.0000000000,408.0000000000,184.0000000000,32.0000000000,0.0000000000
1717675107300,359.0000000000,342.0000000000,404.0000000000,183.0000000000,32.0000000000,0.0000000000
1717675107301,358.0000000000,339.0000000000,401.0000000000,182.0000000000,31.0000000000,0.0000000000
1717675107302,355.0000000000,337.0000000000,398.0000000000,180.0000000000,31.0000000000,0.0000000000
1717675107302,353.0000000000,335.0000000000,396.0000000000,179.0000000000,31.0000000000,0.0000000000
1717675107302,351.0000000000,332.0000000000,391.0000000000,178.0000000000,31.0000000000,0.0000000000
1717675107302,348.0000000000,331.0000000000,390.0000000000,177.0000000000,31.0000000000,0.0000000000
1717675107302,346.0000000000,327.0000000000,387.0000000000,176.0000000000,31.0000000000,0.0000000000
1717675107302,344.0000000000,369.0000000000,385.0000000000,175.0000000000,31.0000000000,0.0000000000
1717675107302,342.0000000000,366.0000000000,382.0000000000,174.0000000000,31.0000000000,0.0000000000
1717675107302,339.0000000000,363.0000000000,379.0000000000,172.0000000000,31.0000000000,0.0000000000
1717675107303,337.0000000000,359.0000000000,376.0000000000,172.0000000000,30.0000000000,0.0000000000
1717675107317,335.0000000000,356.0000000000,374.0000000000,170.0000000000,30.0000000000,0.0000000000
1717675107318,333.0000000000,355.0000000000,371.0000000000,169.0000000000,30.0000000000,0.0000000000
1717675107319,331.0000000000,355.0000000000,368.0000000000,167.0000000000,30.0000000000,0.0000000000
1717675107319,328.0000000000,352.0000000000,366.0000000000,167.0000000000,30.0000000000,0.0000000000
1717675107319,327.0000000000,348.0000000000,364.0000000000,166.0000000000,29.0000000000,0.0000000000
1717675107319,325.0000000000,345.0000000000,361.0000000000,165.0000000000,29.0000000000,0.0000000000
1717675107319,323.0000000000,344.0000000000,359.0000000000,164.0000000000,29.0000000000,0.0000000000
1717675107319,320.0000000000,448.0000000000,355.0000000000,163.0000000000,28.0000000000,0.0000000000
1717675107319,319.0000000000,443.0000000000,372.0000000000,161.0000000000,28.0000000000,0.0000000000
1717675107332,317.0000000000,438.0000000000,369.0000000000,160.0000000000,28.0000000000,0.0000000000
1717675107333,315.0000000000,435.0000000000,367.0000000000,159.0000000000,28.0000000000,0.0000000000
1717675107333,313.0000000000,431.0000000000,364.0000000000,159.0000000000,28.0000000000,0.0000000000
1717675107333,311.0000000000,428.0000000000,361.0000000000,158.0000000000,28.0000000000,0.0000000000
1717675107333,309.0000000000,423.0000000000,359.0000000000,156.0000000000,28.0000000000,0.0000000000
1717675107333,307.0000000000,419.0000000000,355.0000000000,156.0000000000,28.0000000000,0.0000000000
1717675107333,305.0000000000,417.0000000000,353.0000000000,155.0000000000,28.0000000000,0.0000000000
1717675107358,304.0000000000,413.0000000000,351.0000000000,153.0000000000,27.0000000000,0.0000000000
1717675107359,302.0000000000,409.0000000000,349.0000000000,152.0000000000,27.0000000000,0.0000000000
1717675107359,300.0000000000,407.0000000000,347.0000000000,152.0000000000,27.0000000000,0.0000000000
1717675107359,299.0000000000,403.0000000000,344.0000000000,152.0000000000,27.0000000000,0.0000000000
1717675107359,295.0000000000,400.0000000000,352.0000000000,151.0000000000,27.0000000000,0.0000000000
1717675107359,295.0000000000,398.0000000000,348.0000000000,150.0000000000,27.0000000000,0.0000000000
1717675107359,293.0000000000,395.0000000000,346.0000000000,148.0000000000,27.0000000000,0.0000000000
1717675107359,291.0000000000,391.0000000000,344.0000000000,147.0000000000,26.0000000000,0.0000000000
1717675107359,289.0000000000,388.0000000000,340.0000000000,147.0000000000,26.0000000000,0.0000000000
