timestamp,Channel 1,Channel 2,Channel 3,Channel 4,Channel 5,Channel 6
1717675148316,12.0000000000,0.0000000000,1.0000000000,57.0000000000,63.0000000000,0.0000000000
1717675148316,13.0000000000,0.0000000000,1.0000000000,56.0000000000,63.0000000000,0.0000000000
1717675148317,12.0000000000,0.0000000000,1.0000000000,56.0000000000,63.0000000000,0.0000000000
1717675148317,12.0000000000,0.0000000000,1.0000000000,56.0000000000,63.0000000000,0.0000000000
1717675148317,13.0000000000,0.0000000000,1.0000000000,56.0000000000,62.0000000000,0.0000000000
1717675148317,13.0000000000,0.0000000000,1.0000000000,56.0000000000,62.0000000000,0.0000000000
1717675148317,13.0000000000,0.0000000000,1.0000000000,56.0000000000,62.0000000000,0.0000000000
1717675148317,13.0000000000,0.0000000000,1.0000000000,56.0000000000,61.0000000000,0.0000000000
1717675148317,12.0000000000,0.0000000000,1.0000000000,56.0000000000,61.0000000000,0.0000000000
1717675148317,12.0000000000,0.0000000000,1.0000000000,55.0000000000,61.0000000000,0.0000000000
1717675148317,12.0000000000,0.0000000000,1.0000000000,55.0000000000,61.0000000000,0.0000000000
1717675148317,12.0000000000,0.0000000000,1.0000000000,55.0000000000,60.0000000000,0.0000000000
1717675148318,12.0000000000,0.0000000000,1.0000000000,54.0000000000,60.0000000000,0.0000000000
1717675148318,12.0000000000,0.0000000000,1.0000000000,54.0000000000,60.0000000000,0.0000000000
1717675148318,12.0000000000,0.0000000000,1.0000000000,54.0000000000,60.0000000000,0.0000000000
1717675148318,12.0000000000,0.0000000000,1.0000000000,54.0000000000,60.0000000000,0.0000000000
1717675148318,12.0000000000,0.0000000000,1.0000000000,54.0000000000,59.0000000000,0.0000000000
1717675148318,12.0000000000,0.0000000000,1.0000000000,53.0000000000,59.0000000000,0.0000000000
1717675148318,12.0000000000,0.0000000000,1.0000000000,53.0000000000,59.0000000000,0.0000000000
1717675148333,13.0000000000,0.0000000000,1.0000000000,52.0000000000,58.0000000000,0.0000000000
1717675148333,13.0000000000,0.0000000000,1.0000000000,52.0000000000,57.0000000000,0.0000000000
1717675148334,13.0000000000,0.0000000000,1.0000000000,52.0000000000,57.0000000000,0.0000000000
1717675148334,13.0000000000,0.0000000000,1.0000000000,51.0000000000,57.0000000000,0.0000000000
1717675148334,12.0000000000,0.0000000000,1.0000000000,51.0000000000,57.0000000000,0.0000000000
1717675148334,12.0000000000,0.0000000000,1.0000000000,51.0000000000,57.0000000000,0.0000000000
1717675148334,12.0000000000,0.0000000000,1.0000000000,51.0000000000,57.0000000000,0.0000000000
1717675148334,12.0000000000,0.0000000000,1.0000000000,51.0000000000,56.0000000000,0.0000000000
1717675148334,12.0000000000,0.0000000000,1.0000000000,51.0000000000,56.0000000000,0.0000000000
1717675148334,12.0000000000,0.0000000000,1.0000000000,50.0000000000,56.0000000000,0.0000000000
1717675148334,12.0000000000,0.0000000000,1.0000000000,51.0000000000,56.0000000000,0.0000000000
1717675148334,12.0000000000,0.0000000000,1.0000000000,51.0000000000,56.0000000000,0.0000000000
1717675148352,12.0000000000,0.0000000000,1.0000000000,50.0000000000,56.0000000000,0.0000000000
1717675148355,12.0000000000,0.0000000000,1.0000000000,50.0000000000,55.0000000000,0.0000000000
1717675148355,12.0000000000,0.0000000000,1.0000000000,49.0000000000,55.0000000000,0.0000000000
1717675148355,12.0000000000,0.0000000000,1.0000000000,50.0000000000,55.0000000000,0.0000000000
1717675148356,12.0000000000,0.0000000000,1.0000000000,49.0000000000,54.0000000000,0.0000000000
1717675148356,12.0000000000,0.0000000000,1.0000000000,49.0000000000,54.0000000000,0.0000000000
1717675148356,12.0000000000,0.0000000000,1.0000000000,49.0000000000,54.0000000000,0.0000000000
1717675148357,12.0000000000,0.0000000000,1.0000000000,49.0000000000,54.0000000000,0.0000000000
1717675148357,12.0000000000,0.0000000000,1.0000000000,48.0000000000,53.0000000000,0.0000000000
1717675148357,12.0000000000,0.0000000000,1.0000000000,48.0000000000,53.0000000000,0.0000000000
1717675148357,12.0000000000,0.0000000000,1.0000000000,48.0000000000,52.0000000000,0.0000000000
1717675148358,11.0000000000,0.0000000000,1.0000000000,48.0000000000,52.0000000000,0.0000000000
1717675148358,11.0000000000,0.0000000000,1.0000000000,48.0000000000,52.0000000000,0.0000000000
1717675148358,12.0000000000,0.0000000000,1.0000000000,48.0000000000,51.0000000000,0.0000000000
1717675148359,11.0000000000,0.0000000000,1.0000000000,48.0000000000,51.0000000000,0.0000000000
1717675148359,12.0000000000,0.0000000000,1.0000000000,47.0000000000,51.0000000000,0.0000000000
1717675148359,12.0000000000,0.0000000000,1.0000000000,47.0000000000,51.0000000000,0.0000000000
1717675148359,12.0000000000,0.0000000000,1.0000000000,47.0000000000,51.0000000000,0.0000000000
1717675148379,12.0000000000,0.0000000000,1.0000000000,47.0000000000,51.0000000000,0.0000000000
1717675148379,12.0000000000,0.0000000000,1.0000000000,46.0000000000,50.0000000000,0.0000000000
1717675148379,12.0000000000,0.0000000000,1.0000000000,46.0000000000,50.0000000000,0.0000000000
1717675148380,12.0000000000,0.0000000000,1.0000000000,46.0000000000,50.0000000000,0.0000000000
1717675148380,11.0000000000,0.0000000000,1.0000000000,46.0000000000,50.0000000000,0.0000000000
1717675148380,11.0000000000,0.0000000000,1.0000000000,46.0000000000,49.0000000000,0.0000000000
1717675148380,11.0000000000,0.0000000000,1.0000000000,46.0000000000,49.0000000000,0.0000000000
1717675148380,11.0000000000,0.0000000000,1.0000000000,46.0000000000,49.0000000000,0.0000000000
1717675148380,11.0000000000,0.0000000000,1.0000000000,45.0000000000,49.0000000000,0.0000000000
1717675148380,11.0000000000,0.0000000000,1.0000000000,45.0000000000,49.0000000000,0.0000000000
1717675148380,11.0000000000,0.0000000000,1.0000000000,45.0000000000,48.0000000000,0.0000000000
1717675148380,11.0000000000,0.0000000000,1.0000000000,44.0000000000,48.0000000000,0.0000000000
1717675148380,11.0000000000,0.0000000000,1.0000000000,44.0000000000,48.0000000000,0.0000000000
1717675148380,11.0000000000,0.0000000000,1.0000000000,44.0000000000,48.0000000000,0.0000000000
1717675148381,11.0000000000,0.0000000000,1.0000000000,44.0000000000,48.0000000000,0.0000000000
1717675148395,11.0000000000,0.0000000000,1.0000000000,44.0000000000,48.0000000000,0.0000000000
1717675148395,11.0000000000,0.0000000000,1.0000000000,44.0000000000,47.0000000000,0.0000000000
1717675148395,11.0000000000,0.0000000000,1.0000000000,44.0000000000,47.0000000000,0.0000000000
1717675148395,11.0000000000,0.0000000000,1.0000000000,44.0000000000,47.0000000000,0.0000000000
1717675148395,11.0000000000,0.0000000000,1.0000000000,43.0000000000,47.0000000000,0.0000000000
1717675148396,11.0000000000,0.0000000000,1.0000000000,43.0000000000,46.0000000000,0.0000000000
1717675148396,11.0000000000,0.0000000000,1.0000000000,43.0000000000,46.0000000000,0.0000000000
1717675148396,11.0000000000,0.0000000000,1.0000000000,43.0000000000,46.0000000000,0.0000000000
1717675148396,11.0000000000,0.0000000000,3.0000000000,43.0000000000,46.0000000000,0.0000000000
1717675148396,11.0000000000,0.0000000000,3.0000000000,42.0000000000,46.0000000000,0.0000000000
1717675148396,10.0000000000,0.0000000000,3.0000000000,42.0000000000,46.0000000000,0.0000000000
1717675148396,10.0000000000,0.0000000000,3.0000000000,41.0000000000,45.0000000000,0.0000000000
1717675148411,11.0000000000,0.0000000000,3.0000000000,41.0000000000,45.0000000000,0.0000000000
1717675148412,11.0000000000,0.0000000000,3.0000000000,41.0000000000,45.0000000000,0.0000000000
1717675148412,11.0000000000,0.0000000000,3.0000000000,41.0000000000,44.0000000000,0.0000000000
1717675148412,10.0000000000,0.0000000000,3.0000000000,41.0000000000,44.0000000000,0.0000000000
1717675148413,10.0000000000,0.0000000000,3.0000000000,41.0000000000,44.0000000000,0.0000000000
1717675148413,10.0000000000,0.0000000000,2.0000000000,41.0000000000,44.0000000000,0.0000000000
1717675148413,10.0000000000,0.0000000000,3.0000000000,39.0000000000,44.0000000000,0.0000000000
1717675148413,10.0000000000,0.0000000000,3.0000000000,40.0000000000,43.0000000000,0.0000000000
1717675148413,10.0000000000,0.0000000000,3.0000000000,40.0000000000,44.0000000000,0.0000000000
1717675148413,10.0000000000,0.0000000000,16.0000000000,39.0000000000,43.0000000000,0.0000000000
1717675148414,9.0000000000,0.0000000000,16.0000000000,39.0000000000,43.0000000000,0.0000000000
1717675148414,9.0000000000,0.0000000000,16.0000000000,39.0000000000,43.0000000000,0.0000000000
1717675148429,9.0000000000,0.0000000000,16.0000000000,39.0000000000,43.0000000000,0.0000000000
1717675148429,9.0000000000,0.0000000000,24.0000000000,39.0000000000,43.0000000000,0.0000000000
1717675148429,9.0000000000,0.0000000000,24.0000000000,39.0000000000,42.0000000000,0.0000000000
1717675148429,9.0000000000,0.0000000000,24.0000000000,39.0000000000,41.0000000000,0.0000000000
1717675148430,9.0000000000,0.0000000000,24.0000000000,39.0000000000,41.0000000000,0.0000000000
1717675148430,9.0000000000,0.0000000000,23.0000000000,39.0000000000,41.0000000000,0.0000000000
1717675148430,10.0000000000,0.0000000000,23.0000000000,39.0000000000,41.0000000000,0.0000000000
1717675148430,9.0000000000,0.0000000000,23.0000000000,39.0000000000,41.0000000000,0.0000000000
1717675148430,9.0000000000,25.0000000000,23.0000000000,39.0000000000,40.0000000000,0.0000000000
1717675148430,9.0000000000,25.0000000000,22.0000000000,38.0000000000,40.0000000000,0.0000000000
1717675148430,9.0000000000,25.0000000000,23.0000000000,38.0000000000,40.0000000000,0.0000000000
1717675148444,9.0000000000,25.0000000000,87.0000000000,38.0000000000,39.0000000000,0.0000000000
1717675148444,9.0000000000,25.0000000000,103.0000000000,38.0000000000,39.0000000000,0.0000000000
1717675148445,9.0000000000,24.0000000000,121.0000000000,38.0000000000,39.0000000000,0.0000000000
1717675148445,9.0000000000,24.0000000000,126.0000000000,38.0000000000,39.0000000000,0.0000000000
1717675148445,9.0000000000,24.0000000000,125.0000000000,38.0000000000,39.0000000000,0.0000000000
1717675148445,9.0000000000,24.0000000000,124.0000000000,37.0000000000,39.0000000000,0.0000000000
1717675148445,9.0000000000,24.0000000000,124.0000000000,37.0000000000,39.0000000000,0.0000000000
1717675148445,9.0000000000,24.0000000000,122.0000000000,36.0000000000,39.0000000000,0.0000000000
1717675148445,9.0000000000,24.0000000000,121.0000000000,36.0000000000,39.0000000000,0.0000000000
1717675148445,9.0000000000,24.0000000000,121.0000000000,36.0000000000,39.0000000000,0.0000000000
1717675148446,9.0000000000,24.0000000000,120.0000000000,36.0000000000,38.0000000000,0.0000000000
1717675148468,9.0000000000,24.0000000000,120.0000000000,36.0000000000,38.0000000000,0.0000000000
1717675148471,9.0000000000,24.0000000000,119.0000000000,35.0000000000,38.0000000000,0.0000000000
1717675148471,9.0000000000,23.0000000000,118.0000000000,35.0000000000,38.0000000000,0.0000000000
1717675148472,9.0000000000,23.0000000000,118.0000000000,35.0000000000,38.0000000000,0.0000000000
1717675148472,9.0000000000,23.0000000000,117.0000000000,35.0000000000,38.0000000000,0.0000000000
1717675148472,9.0000000000,23.0000000000,116.0000000000,35.0000000000,37.0000000000,0.0000000000
1717675148473,9.0000000000,22.0000000000,115.0000000000,35.0000000000,37.0000000000,0.0000000000
1717675148473,9.0000000000,22.0000000000,115.0000000000,35.0000000000,37.0000000000,0.0000000000
1717675148473,9.0000000000,22.0000000000,115.0000000000,35.0000000000,37.0000000000,0.0000000000
1717675148473,9.0000000000,22.0000000000,115.0000000000,35.0000000000,36.0000000000,0.0000000000
1717675148473,9.0000000000,22.0000000000,210.0000000000,34.0000000000,36.0000000000,0.0000000000
1717675148473,9.0000000000,22.0000000000,206.0000000000,34.0000000000,35.0000000000,0.0000000000
1717675148473,9.0000000000,22.0000000000,204.0000000000,34.0000000000,35.0000000000,0.0000000000
1717675148474,9.0000000000,21.0000000000,204.0000000000,34.0000000000,35.0000000000,0.0000000000
1717675148474,9.0000000000,21.0000000000,201.0000000000,34.0000000000,35.0000000000,0.0000000000
1717675148474,9.0000000000,22.0000000000,200.0000000000,34.0000000000,35.0000000000,0.0000000000
1717675148474,9.0000000000,21.0000000000,199.0000000000,33.0000000000,35.0000000000,0.0000000000
1717675148475,7.0000000000,21.0000000000,198.0000000000,33.0000000000,35.0000000000,0.0000000000
1717675148475,8.0000000000,20.0000000000,197.0000000000,33.0000000000,35.0000000000,0.0000000000
1717675148487,8.0000000000,20.0000000000,196.0000000000,33.0000000000,35.0000000000,0.0000000000
1717675148488,7.0000000000,20.0000000000,195.0000000000,33.0000000000,34.0000000000,0.0000000000
1717675148488,7.0000000000,20.0000000000,194.0000000000,33.0000000000,34.0000000000,0.0000000000
1717675148488,8.0000000000,20.0000000000,193.0000000000,32.0000000000,34.0000000000,0.0000000000
1717675148488,8.0000000000,20.0000000000,192.0000000000,32.0000000000,34.0000000000,0.0000000000
1717675148488,8.0000000000,20.0000000000,191.0000000000,32.0000000000,34.0000000000,0.0000000000
1717675148488,7.0000000000,20.0000000000,193.0000000000,31.0000000000,33.0000000000,0.0000000000
1717675148488,8.0000000000,19.0000000000,279.0000000000,31.0000000000,33.0000000000,0.0000000000
1717675148505,8.0000000000,19.0000000000,275.0000000000,31.0000000000,33.0000000000,0.0000000000
1717675148507,7.0000000000,19.0000000000,272.0000000000,31.0000000000,33.0000000000,0.0000000000
1717675148508,7.0000000000,19.0000000000,271.0000000000,31.0000000000,33.0000000000,0.0000000000
1717675148508,7.0000000000,19.0000000000,269.0000000000,31.0000000000,33.0000000000,0.0000000000
1717675148509,7.0000000000,19.0000000000,268.0000000000,31.0000000000,33.0000000000,0.0000000000
1717675148509,7.0000000000,19.0000000000,286.0000000000,31.0000000000,32.0000000000,0.0000000000
1717675148509,7.0000000000,19.0000000000,377.0000000000,31.0000000000,31.0000000000,0.0000000000
1717675148509,24.0000000000,27.0000000000,372.0000000000,31.0000000000,31.0000000000,0.0000000000
1717675148510,25.0000000000,26.0000000000,370.0000000000,31.0000000000,31.0000000000,0.0000000000
1717675148510,25.0000000000,26.0000000000,367.0000000000,31.0000000000,31.0000000000,0.0000000000
1717675148510,25.0000000000,26.0000000000,364.0000000000,31.0000000000,31.0000000000,0.0000000000
1717675148510,25.0000000000,93.0000000000,362.0000000000,30.0000000000,31.0000000000,0.0000000000
1717675148511,25.0000000000,138.0000000000,359.0000000000,30.0000000000,31.0000000000,0.0000000000
1717675148511,25.0000000000,135.0000000000,356.0000000000,30.0000000000,31.0000000000,0.0000000000
1717675148511,25.0000000000,135.0000000000,355.0000000000,30.0000000000,31.0000000000,0.0000000000
1717675148540,24.0000000000,134.0000000000,352.0000000000,30.0000000000,31.0000000000,0.0000000000
1717675148541,24.0000000000,133.0000000000,350.0000000000,30.0000000000,31.0000000000,0.0000000000
1717675148541,24.0000000000,132.0000000000,347.0000000000,29.0000000000,30.0000000000,0.0000000000
1717675148541,24.0000000000,131.0000000000,344.0000000000,30.0000000000,30.0000000000,0.0000000000
1717675148541,24.0000000000,130.0000000000,342.0000000000,29.0000000000,30.0000000000,0.0000000000
1717675148542,24.0000000000,129.0000000000,340.0000000000,29.0000000000,30.0000000000,0.0000000000
1717675148542,24.0000000000,128.0000000000,339.0000000000,29.0000000000,30.0000000000,0.0000000000
1717675148542,24.0000000000,127.0000000000,335.0000000000,29.0000000000,30.0000000000,0.0000000000
1717675148542,24.0000000000,127.0000000000,334.0000000000,28.0000000000,29.0000000000,0.0000000000
1717675148542,24.0000000000,126.0000000000,332.0000000000,28.0000000000,29.0000000000,0.0000000000
1717675148542,24.0000000000,125.0000000000,329.0000000000,28.0000000000,30.0000000000,0.0000000000
1717675148542,24.0000000000,125.0000000000,327.0000000000,28.0000000000,29.0000000000,0.0000000000
1717675148542,24.0000000000,124.0000000000,326.0000000000,28.0000000000,29.0000000000,0.0000000000
1717675148542,24.0000000000,123.0000000000,323.0000000000,28.0000000000,29.0000000000,0.0000000000
1717675148542,44.0000000000,123.0000000000,321.0000000000,28.0000000000,28.0000000000,0.0000000000
1717675148542,139.0000000000,121.0000000000,319.0000000000,28.0000000000,28.0000000000,0.0000000000
1717675148543,167.0000000000,121.0000000000,318.0000000000,28.0000000000,28.0000000000,0.0000000000
1717675148543,176.0000000000,122.0000000000,316.0000000000,28.0000000000,28.0000000000,0.0000000000
1717675148543,174.0000000000,121.0000000000,313.0000000000,27.0000000000,28.0000000000,0.0000000000
1717675148556,172.0000000000,120.0000000000,312.0000000000,27.0000000000,28.0000000000,0.0000000000
1717675148557,171.0000000000,120.0000000000,310.0000000000,27.0000000000,28.0000000000,0.0000000000
1717675148557,169.0000000000,119.0000000000,308.0000000000,27.0000000000,28.0000000000,0.0000000000
1717675148558,167.0000000000,118.0000000000,306.0000000000,27.0000000000,28.0000000000,0.0000000000
1717675148558,167.0000000000,118.0000000000,304.0000000000,27.0000000000,28.0000000000,0.0000000000
1717675148558,166.0000000000,117.0000000000,302.0000000000,26.0000000000,27.0000000000,0.0000000000
1717675148558,166.0000000000,115.0000000000,300.0000000000,26.0000000000,27.0000000000,0.0000000000
1717675148558,216.0000000000,115.0000000000,299.0000000000,26.0000000000,27.0000000000,0.0000000000
1717675148558,267.0000000000,115.0000000000,297.0000000000,26.0000000000,27.0000000000,0.0000000000
1717675148572,408.0000000000,214.0000000000,295.0000000000,25.0000000000,27.0000000000,0.0000000000
1717675148573,417.0000000000,209.0000000000,293.0000000000,25.0000000000,27.0000000000,0.0000000000
1717675148573,414.0000000000,207.0000000000,374.0000000000,25.0000000000,26.0000000000,0.0000000000
1717675148573,409.0000000000,206.0000000000,395.0000000000,25.0000000000,25.0000000000,0.0000000000
1717675148573,406.0000000000,204.0000000000,391.0000000000,25.0000000000,26.0000000000,0.0000000000
1717675148574,402.0000000000,204.0000000000,387.0000000000,25.0000000000,25.0000000000,0.0000000000
1717675148574,399.0000000000,201.0000000000,385.0000000000,24.0000000000,25.0000000000,0.0000000000
1717675148575,396.0000000000,199.0000000000,382.0000000000,24.0000000000,25.0000000000,0.0000000000
1717675148575,391.0000000000,199.0000000000,379.0000000000,24.0000000000,25.0000000000,0.0000000000
1717675148575,390.0000000000,198.0000000000,376.0000000000,24.0000000000,25.0000000000,0.0000000000
1717675148588,387.0000000000,196.0000000000,419.0000000000,24.0000000000,25.0000000000,0.0000000000
1717675148589,384.0000000000,195.0000000000,428.0000000000,24.0000000000,24.0000000000,0.0000000000
1717675148590,381.0000000000,194.0000000000,452.0000000000,24.0000000000,24.0000000000,0.0000000000
1717675148590,377.0000000000,193.0000000000,448.0000000000,24.0000000000,24.0000000000,0.0000000000
1717675148590,376.0000000000,192.0000000000,445.0000000000,24.0000000000,24.0000000000,0.0000000000
1717675148590,372.0000000000,275.0000000000,441.0000000000,24.0000000000,24.0000000000,0.0000000000
1717675148607,369.0000000000,309.0000000000,438.0000000000,24.0000000000,24.0000000000,0.0000000000
1717675148607,367.0000000000,307.0000000000,434.0000000000,24.0000000000,24.0000000000,0.0000000000
1717675148608,364.0000000000,304.0000000000,430.0000000000,24.0000000000,24.0000000000,0.0000000000
1717675148608,361.0000000000,301.0000000000,428.0000000000,23.0000000000,24.0000000000,0.0000000000
1717675148608,359.0000000000,299.0000000000,423.0000000000,24.0000000000,24.0000000000,0.0000000000
1717675148608,419.0000000000,295.0000000000,422.0000000000,23.0000000000,24.0000000000,0.0000000000
1717675148608,588.0000000000,295.0000000000,418.0000000000,23.0000000000,24.0000000000,0.0000000000
1717675148608,665.0000000000,292.0000000000,455.0000000000,23.0000000000,24.0000000000,0.0000000000
1717675148608,657.0000000000,290.0000000000,451.0000000000,22.0000000000,23.0000000000,0.0000000000
1717675148608,649.0000000000,289.0000000000,448.0000000000,23.0000000000,24.0000000000,0.0000000000
1717675148608,643.0000000000,287.0000000000,479.0000000000,22.0000000000,28.0000000000,0.0000000000
1717675148608,636.0000000000,285.0000000000,473.0000000000,22.0000000000,28.0000000000,0.0000000000
1717675148623,628.0000000000,283.0000000000,470.0000000000,23.0000000000,28.0000000000,0.0000000000
1717675148624,622.0000000000,280.0000000000,465.0000000000,22.0000000000,27.0000000000,0.0000000000
1717675148624,615.0000000000,280.0000000000,462.0000000000,22.0000000000,27.0000000000,0.0000000000
1717675148625,609.0000000000,277.0000000000,459.0000000000,22.0000000000,27.0000000000,0.0000000000
1717675148625,604.0000000000,275.0000000000,500.0000000000,21.0000000000,27.0000000000,0.0000000000
1717675148625,598.0000000000,273.0000000000,496.0000000000,22.0000000000,27.0000000000,0.0000000000
1717675148625,592.0000000000,271.0000000000,492.0000000000,22.0000000000,26.0000000000,0.0000000000
1717675148625,587.0000000000,270.0000000000,487.0000000000,22.0000000000,26.0000000000,0.0000000000
1717675148625,582.0000000000,268.0000000000,483.0000000000,21.0000000000,26.0000000000,0.0000000000
1717675148639,575.0000000000,267.0000000000,480.0000000000,21.0000000000,26.0000000000,0.0000000000
1717675148640,571.0000000000,265.0000000000,476.0000000000,20.0000000000,27.0000000000,0.0000000000
1717675148640,566.0000000000,263.0000000000,472.0000000000,20.0000000000,27.0000000000,0.0000000000
1717675148640,560.0000000000,262.0000000000,469.0000000000,21.0000000000,27.0000000000,0.0000000000
1717675148640,556.0000000000,259.0000000000,464.0000000000,20.0000000000,27.0000000000,0.0000000000
1717675148640,551.0000000000,259.0000000000,461.0000000000,20.0000000000,26.0000000000,0.0000000000
1717675148640,547.0000000000,259.0000000000,487.0000000000,20.0000000000,26.0000000000,0.0000000000
1717675148641,542.0000000000,258.0000000000,558.0000000000,20.0000000000,26.0000000000,0.0000000000
1717675148641,536.0000000000,255.0000000000,552.0000000000,20.0000000000,26.0000000000,0.0000000000
1717675148656,532.0000000000,255.0000000000,547.0000000000,20.0000000000,25.0000000000,0.0000000000
1717675148658,527.0000000000,253.0000000000,542.0000000000,19.0000000000,25.0000000000,0.0000000000
1717675148658,524.0000000000,252.0000000000,538.0000000000,19.0000000000,27.0000000000,0.0000000000
1717675148659,519.0000000000,251.0000000000,532.0000000000,20.0000000000,28.0000000000,0.0000000000
1717675148659,515.0000000000,248.0000000000,563.0000000000,19.0000000000,28.0000000000,0.0000000000
1717675148659,511.0000000000,248.0000000000,556.0000000000,19.0000000000,28.0000000000,0.0000000000
1717675148659,507.0000000000,246.0000000000,551.0000000000,19.0000000000,28.0000000000,0.0000000000
1717675148660,503.0000000000,243.0000000000,547.0000000000,19.0000000000,28.0000000000,0.0000000000
1717675148660,499.0000000000,243.0000000000,542.0000000000,19.0000000000,27.0000000000,0.0000000000
1717675148660,495.0000000000,241.0000000000,537.0000000000,19.0000000000,27.0000000000,0.0000000000
1717675148660,491.0000000000,240.0000000000,532.0000000000,19.0000000000,27.0000000000,0.0000000000
1717675148661,487.0000000000,239.0000000000,529.0000000000,19.0000000000,27.0000000000,0.0000000000
1717675148695,483.0000000000,237.0000000000,583.0000000000,19.0000000000,26.0000000000,0.0000000000
1717675148695,480.0000000000,236.0000000000,575.0000000000,19.0000000000,28.0000000000,0.0000000000
1717675148696,476.0000000000,235.0000000000,671.0000000000,19.0000000000,36.0000000000,0.0000000000
1717675148696,472.0000000000,233.0000000000,702.0000000000,19.0000000000,39.0000000000,0.0000000000
1717675148696,469.0000000000,384.0000000000,695.0000000000,19.0000000000,39.0000000000,0.0000000000
1717675148696,465.0000000000,408.0000000000,686.0000000000,18.0000000000,38.0000000000,0.0000000000
1717675148696,462.0000000000,403.0000000000,678.0000000000,19.0000000000,38.0000000000,0.0000000000
1717675148696,458.0000000000,399.0000000000,671.0000000000,18.0000000000,38.0000000000,0.0000000000
1717675148696,455.0000000000,397.0000000000,710.0000000000,18.0000000000,38.0000000000,0.0000000000
1717675148697,452.0000000000,393.0000000000,704.0000000000,108.0000000000,37.0000000000,0.0000000000
1717675148697,448.0000000000,390.0000000000,695.0000000000,107.0000000000,36.0000000000,0.0000000000
1717675148697,444.0000000000,387.0000000000,686.0000000000,107.0000000000,36.0000000000,0.0000000000
1717675148697,441.0000000000,384.0000000000,679.0000000000,105.0000000000,35.0000000000,0.0000000000
1717675148697,438.0000000000,381.0000000000,673.0000000000,104.0000000000,35.0000000000,0.0000000000
1717675148698,435.0000000000,378.0000000000,666.0000000000,103.0000000000,36.0000000000,0.0000000000
1717675148698,432.0000000000,376.0000000000,659.0000000000,103.0000000000,35.0000000000,0.0000000000
1717675148698,428.0000000000,372.0000000000,652.0000000000,103.0000000000,35.0000000000,0.0000000000
1717675148698,424.0000000000,369.0000000000,646.0000000000,102.0000000000,35.0000000000,0.0000000000
1717675148698,422.0000000000,367.0000000000,639.0000000000,100.0000000000,35.0000000000,0.0000000000
1717675148698,419.0000000000,365.0000000000,633.0000000000,100.0000000000,35.0000000000,0.0000000000
1717675148714,415.0000000000,362.0000000000,627.0000000000,99.0000000000,34.0000000000,0.0000000000
1717675148715,413.0000000000,359.0000000000,651.0000000000,99.0000000000,34.0000000000,0.0000000000
1717675148715,411.0000000000,358.0000000000,705.0000000000,98.0000000000,34.0000000000,0.0000000000
1717675148715,408.0000000000,355.0000000000,699.0000000000,97.0000000000,33.0000000000,0.0000000000
1717675148715,404.0000000000,352.0000000000,691.0000000000,96.0000000000,33.0000000000,0.0000000000
1717675148715,402.0000000000,350.0000000000,683.0000000000,96.0000000000,33.0000000000,0.0000000000
1717675148715,399.0000000000,347.0000000000,677.0000000000,96.0000000000,33.0000000000,0.0000000000
1717675148715,396.0000000000,345.0000000000,670.0000000000,95.0000000000,33.0000000000,0.0000000000
1717675148715,393.0000000000,343.0000000000,664.0000000000,95.0000000000,32.0000000000,0.0000000000
1717675148731,391.0000000000,341.0000000000,656.0000000000,94.0000000000,32.0000000000,0.0000000000
1717675148732,388.0000000000,338.0000000000,649.0000000000,93.0000000000,32.0000000000,0.0000000000
1717675148732,386.0000000000,335.0000000000,645.0000000000,92.0000000000,32.0000000000,0.0000000000
1717675148732,384.0000000000,334.0000000000,638.0000000000,92.0000000000,31.0000000000,0.0000000000
1717675148732,381.0000000000,332.0000000000,633.0000000000,92.0000000000,31.0000000000,0.0000000000
1717675148732,379.0000000000,330.0000000000,627.0000000000,91.0000000000,31.0000000000,0.0000000000
1717675148732,376.0000000000,327.0000000000,620.0000000000,91.0000000000,31.0000000000,0.0000000000
1717675148732,374.0000000000,326.0000000000,615.0000000000,90.0000000000,31.0000000000,0.0000000000
1717675148732,371.0000000000,323.0000000000,718.0000000000,89.0000000000,31.0000000000,0.0000000000
1717675148745,368.0000000000,321.0000000000,710.0000000000,88.0000000000,31.0000000000,0.0000000000
1717675148746,367.0000000000,319.0000000000,701.0000000000,88.0000000000,31.0000000000,0.0000000000
1717675148746,364.0000000000,317.0000000000,696.0000000000,88.0000000000,31.0000000000,0.0000000000
1717675148746,361.0000000000,315.0000000000,688.0000000000,88.0000000000,30.0000000000,0.0000000000
1717675148746,359.0000000000,313.0000000000,679.0000000000,87.0000000000,30.0000000000,0.0000000000
1717675148746,358.0000000000,312.0000000000,674.0000000000,86.0000000000,30.0000000000,0.0000000000
1717675148746,355.0000000000,310.0000000000,697.0000000000,86.0000000000,29.0000000000,0.0000000000
1717675148746,353.0000000000,307.0000000000,691.0000000000,85.0000000000,35.0000000000,0.0000000000
1717675148746,351.0000000000,306.0000000000,683.0000000000,84.0000000000,35.0000000000,0.0000000000
1717675148763,348.0000000000,304.0000000000,675.0000000000,83.0000000000,35.0000000000,0.0000000000
1717675148764,346.0000000000,302.0000000000,669.0000000000,83.0000000000,33.0000000000,0.0000000000
1717675148764,344.0000000000,300.0000000000,662.0000000000,83.0000000000,33.0000000000,0.0000000000
1717675148764,342.0000000000,298.0000000000,655.0000000000,83.0000000000,33.0000000000,0.0000000000
1717675148765,340.0000000000,296.0000000000,649.0000000000,82.0000000000,33.0000000000,0.0000000000
1717675148765,338.0000000000,295.0000000000,644.0000000000,82.0000000000,33.0000000000,0.0000000000
1717675148765,335.0000000000,292.0000000000,638.0000000000,81.0000000000,33.0000000000,0.0000000000
1717675148765,334.0000000000,291.0000000000,632.0000000000,80.0000000000,32.0000000000,0.0000000000
1717675148765,332.0000000000,289.0000000000,703.0000000000,80.0000000000,32.0000000000,0.0000000000
1717675148765,329.0000000000,287.0000000000,736.0000000000,79.0000000000,31.0000000000,0.0000000000
1717675148780,327.0000000000,286.0000000000,729.0000000000,79.0000000000,31.0000000000,0.0000000000
1717675148781,326.0000000000,284.0000000000,720.0000000000,79.0000000000,32.0000000000,0.0000000000
1717675148781,323.0000000000,283.0000000000,711.0000000000,78.0000000000,31.0000000000,0.0000000000
1717675148781,322.0000000000,281.0000000000,705.0000000000,78.0000000000,31.0000000000,0.0000000000
1717675148781,319.0000000000,280.0000000000,697.0000000000,77.0000000000,31.0000000000,0.0000000000
1717675148781,319.0000000000,278.0000000000,691.0000000000,77.0000000000,31.0000000000,0.0000000000
1717675148781,316.0000000000,275.0000000000,684.0000000000,76.0000000000,31.0000000000,0.0000000000
1717675148781,315.0000000000,275.0000000000,676.0000000000,76.0000000000,31.0000000000,0.0000000000
1717675148781,312.0000000000,273.0000000000,671.0000000000,75.0000000000,31.0000000000,0.0000000000
1717675148797,312.0000000000,271.0000000000,664.0000000000,76.0000000000,30.0000000000,0.0000000000
1717675148799,310.0000000000,270.0000000000,659.0000000000,75.0000000000,30.0000000000,0.0000000000
1717675148799,307.0000000000,268.0000000000,652.0000000000,74.0000000000,30.0000000000,0.0000000000
1717675148799,305.0000000000,267.0000000000,647.0000000000,74.0000000000,30.0000000000,0.0000000000
1717675148799,304.0000000000,265.0000000000,639.0000000000,73.0000000000,30.0000000000,0.0000000000
1717675148800,302.0000000000,263.0000000000,633.0000000000,73.0000000000,30.0000000000,0.0000000000
1717675148800,300.0000000000,262.0000000000,628.0000000000,71.0000000000,29.0000000000,0.0000000000
1717675148800,298.0000000000,260.0000000000,623.0000000000,71.0000000000,29.0000000000,0.0000000000
1717675148800,296.0000000000,259.0000000000,617.0000000000,71.0000000000,29.0000000000,0.0000000000
1717675148801,295.0000000000,257.0000000000,683.0000000000,71.0000000000,29.0000000000,0.0000000000
1717675148801,294.0000000000,255.0000000000,674.0000000000,71.0000000000,28.0000000000,0.0000000000
1717675148822,291.0000000000,255.0000000000,764.0000000000,70.0000000000,28.0000000000,0.0000000000
1717675148823,290.0000000000,254.0000000000,752.0000000000,70.0000000000,28.0000000000,0.0000000000
1717675148824,289.0000000000,252.0000000000,745.0000000000,70.0000000000,28.0000000000,0.0000000000
1717675148824,287.0000000000,251.0000000000,736.0000000000,70.0000000000,28.0000000000,0.0000000000
1717675148824,286.0000000000,249.0000000000,728.0000000000,69.0000000000,28.0000000000,0.0000000000
1717675148824,284.0000000000,248.0000000000,721.0000000000,68.0000000000,28.0000000000,0.0000000000
1717675148824,282.0000000000,247.0000000000,711.0000000000,68.0000000000,27.0000000000,0.0000000000
1717675148825,280.0000000000,245.0000000000,706.0000000000,67.0000000000,27.0000000000,0.0000000000
1717675148825,279.0000000000,244.0000000000,720.0000000000,67.0000000000,27.0000000000,0.0000000000
1717675148825,277.0000000000,243.0000000000,732.0000000000,67.0000000000,27.0000000000,0.0000000000
1717675148825,275.0000000000,241.0000000000,723.0000000000,66.0000000000,27.0000000000,0.0000000000
1717675148825,274.0000000000,240.0000000000,715.0000000000,66.0000000000,26.0000000000,0.0000000000
1717675148825,273.0000000000,239.0000000000,708.0000000000,66.0000000000,26.0000000000,0.0000000000
1717675148825,271.0000000000,238.0000000000,700.0000000000,65.0000000000,27.0000000000,0.0000000000
1717675148838,270.0000000000,236.0000000000,694.0000000000,65.0000000000,27.0000000000,0.0000000000
1717675148839,268.0000000000,235.0000000000,687.0000000000,64.0000000000,26.0000000000,0.0000000000
1717675148839,267.0000000000,233.0000000000,679.0000000000,63.0000000000,25.0000000000,0.0000000000
1717675148839,265.0000000000,231.0000000000,673.0000000000,63.0000000000,25.0000000000,0.0000000000
1717675148839,263.0000000000,231.0000000000,667.0000000000,63.0000000000,26.0000000000,0.0000000000
1717675148840,263.0000000000,230.0000000000,661.0000000000,63.0000000000,25.0000000000,0.0000000000
1717675148840,261.0000000000,228.0000000000,654.0000000000,63.0000000000,25.0000000000,0.0000000000
1717675148855,259.0000000000,251.0000000000,647.0000000000,62.0000000000,25.0000000000,0.0000000000
1717675148856,259.0000000000,248.0000000000,643.0000000000,62.0000000000,25.0000000000,0.0000000000
1717675148856,257.0000000000,247.0000000000,636.0000000000,62.0000000000,24.0000000000,0.0000000000
1717675148856,255.0000000000,244.0000000000,632.0000000000,62.0000000000,24.0000000000,0.0000000000
1717675148856,254.0000000000,243.0000000000,625.0000000000,61.0000000000,27.0000000000,0.0000000000
1717675148856,252.0000000000,241.0000000000,620.0000000000,60.0000000000,27.0000000000,0.0000000000
1717675148856,252.0000000000,240.0000000000,615.0000000000,60.0000000000,27.0000000000,0.0000000000
1717675148857,250.0000000000,239.0000000000,609.0000000000,60.0000000000,27.0000000000,0.0000000000
1717675148857,248.0000000000,236.0000000000,604.0000000000,60.0000000000,26.0000000000,0.0000000000
1717675148857,248.0000000000,235.0000000000,599.0000000000,60.0000000000,27.0000000000,0.0000000000
1717675148858,246.0000000000,233.0000000000,594.0000000000,59.0000000000,26.0000000000,0.0000000000
1717675148873,244.0000000000,231.0000000000,588.0000000000,59.0000000000,26.0000000000,0.0000000000
1717675148873,243.0000000000,231.0000000000,583.0000000000,58.0000000000,25.0000000000,0.0000000000
1717675148873,243.0000000000,230.0000000000,579.0000000000,58.0000000000,25.0000000000,0.0000000000
1717675148874,241.0000000000,228.0000000000,659.0000000000,57.0000000000,25.0000000000,0.0000000000
1717675148875,240.0000000000,227.0000000000,652.0000000000,57.0000000000,25.0000000000,0.0000000000
1717675148875,239.0000000000,225.0000000000,645.0000000000,57.0000000000,25.0000000000,0.0000000000
1717675148876,237.0000000000,224.0000000000,638.0000000000,56.0000000000,25.0000000000,0.0000000000
1717675148877,236.0000000000,223.0000000000,632.0000000000,56.0000000000,25.0000000000,0.0000000000
1717675148877,235.0000000000,222.0000000000,626.0000000000,56.0000000000,25.0000000000,0.0000000000
1717675148878,233.0000000000,220.0000000000,620.0000000000,56.0000000000,25.0000000000,0.0000000000
1717675148879,231.0000000000,220.0000000000,614.0000000000,56.0000000000,24.0000000000,0.0000000000
1717675148879,231.0000000000,217.0000000000,609.0000000000,56.0000000000,24.0000000000,0.0000000000
1717675148920,230.0000000000,216.0000000000,604.0000000000,55.0000000000,24.0000000000,0.0000000000
1717675148921,228.0000000000,216.0000000000,598.0000000000,54.0000000000,24.0000000000,0.0000000000
1717675148921,228.0000000000,215.0000000000,593.0000000000,55.0000000000,24.0000000000,0.0000000000
1717675148921,227.0000000000,214.0000000000,588.0000000000,54.0000000000,24.0000000000,0.0000000000
1717675148921,226.0000000000,319.0000000000,583.0000000000,54.0000000000,24.0000000000,0.0000000000
1717675148921,224.0000000000,323.0000000000,577.0000000000,54.0000000000,24.0000000000,0.0000000000
1717675148921,224.0000000000,321.0000000000,572.0000000000,53.0000000000,23.0000000000,0.0000000000
1717675148921,222.0000000000,318.0000000000,568.0000000000,52.0000000000,24.0000000000,0.0000000000
1717675148921,221.0000000000,316.0000000000,563.0000000000,52.0000000000,23.0000000000,0.0000000000
1717675148922,220.0000000000,313.0000000000,559.0000000000,51.0000000000,23.0000000000,0.0000000000
1717675148922,219.0000000000,312.0000000000,554.0000000000,51.0000000000,22.0000000000,0.0000000000
1717675148922,217.0000000000,309.0000000000,550.0000000000,51.0000000000,23.0000000000,0.0000000000
1717675148922,216.0000000000,307.0000000000,545.0000000000,51.0000000000,22.0000000000,0.0000000000
1717675148922,216.0000000000,305.0000000000,541.0000000000,51.0000000000,22.0000000000,0.0000000000
1717675148922,215.0000000000,304.0000000000,537.0000000000,51.0000000000,23.0000000000,0.0000000000
1717675148922,213.0000000000,303.0000000000,532.0000000000,51.0000000000,22.0000000000,0.0000000000
1717675148923,212.0000000000,300.0000000000,529.0000000000,50.0000000000,22.0000000000,0.0000000000
1717675148923,211.0000000000,299.0000000000,525.0000000000,50.0000000000,22.0000000000,0.0000000000
1717675148923,210.0000000000,296.0000000000,536.0000000000,49.0000000000,22.0000000000,0.0000000000
1717675148923,209.0000000000,295.0000000000,531.0000000000,49.0000000000,22.0000000000,0.0000000000
1717675148923,214.0000000000,293.0000000000,526.0000000000,49.0000000000,22.0000000000,0.0000000000
1717675148923,212.0000000000,291.0000000000,521.0000000000,49.0000000000,22.0000000000,0.0000000000
1717675148923,211.0000000000,287.0000000000,518.0000000000,48.0000000000,21.0000000000,0.0000000000
1717675148924,209.0000000000,287.0000000000,573.0000000000,49.0000000000,21.0000000000,0.0000000000
1717675148924,207.0000000000,284.0000000000,568.0000000000,49.0000000000,21.0000000000,0.0000000000
1717675148937,207.0000000000,284.0000000000,562.0000000000,49.0000000000,21.0000000000,0.0000000000
1717675148938,206.0000000000,281.0000000000,558.0000000000,48.0000000000,21.0000000000,0.0000000000
1717675148938,204.0000000000,280.0000000000,551.0000000000,48.0000000000,20.0000000000,0.0000000000
1717675148938,204.0000000000,278.0000000000,547.0000000000,48.0000000000,20.0000000000,0.0000000000
1717675148938,203.0000000000,275.0000000000,543.0000000000,48.0000000000,20.0000000000,0.0000000000
1717675148938,201.0000000000,275.0000000000,539.0000000000,47.0000000000,20.0000000000,0.0000000000
1717675148939,200.0000000000,272.0000000000,535.0000000000,47.0000000000,20.0000000000,0.0000000000
1717675148954,199.0000000000,271.0000000000,529.0000000000,47.0000000000,20.0000000000,0.0000000000
1717675148956,199.0000000000,270.0000000000,526.0000000000,47.0000000000,19.0000000000,0.0000000000
1717675148957,198.0000000000,267.0000000000,521.0000000000,46.0000000000,19.0000000000,0.0000000000
1717675148957,196.0000000000,266.0000000000,516.0000000000,46.0000000000,19.0000000000,0.0000000000
1717675148957,195.0000000000,263.0000000000,512.0000000000,46.0000000000,19.0000000000,0.0000000000
1717675148957,195.0000000000,263.0000000000,508.0000000000,46.0000000000,19.0000000000,0.0000000000
1717675148957,193.0000000000,261.0000000000,505.0000000000,45.0000000000,19.0000000000,0.0000000000
1717675148957,193.0000000000,259.0000000000,501.0000000000,44.0000000000,19.0000000000,0.0000000000
1717675148958,192.0000000000,258.0000000000,497.0000000000,44.0000000000,19.0000000000,0.0000000000
1717675148958,191.0000000000,255.0000000000,494.0000000000,44.0000000000,19.0000000000,0.0000000000
1717675148958,190.0000000000,255.0000000000,489.0000000000,44.0000000000,19.0000000000,0.0000000000
1717675148972,189.0000000000,253.0000000000,487.0000000000,44.0000000000,19.0000000000,0.0000000000
1717675148973,188.0000000000,252.0000000000,483.0000000000,44.0000000000,18.0000000000,0.0000000000
1717675148973,188.0000000000,250.0000000000,480.0000000000,44.0000000000,19.0000000000,0.0000000000
1717675148973,187.0000000000,248.0000000000,476.0000000000,43.0000000000,18.0000000000,0.0000000000
1717675148974,185.0000000000,248.0000000000,473.0000000000,43.0000000000,19.0000000000,0.0000000000
1717675148974,184.0000000000,246.0000000000,471.0000000000,43.0000000000,18.0000000000,0.0000000000
1717675148974,184.0000000000,244.0000000000,467.0000000000,42.0000000000,18.0000000000,0.0000000000
1717675148974,183.0000000000,259.0000000000,464.0000000000,42.0000000000,18.0000000000,0.0000000000
1717675148974,182.0000000000,302.0000000000,475.0000000000,41.0000000000,17.0000000000,0.0000000000
1717675148975,182.0000000000,300.0000000000,470.0000000000,41.0000000000,18.0000000000,0.0000000000
1717675148988,180.0000000000,295.0000000000,467.0000000000,41.0000000000,17.0000000000,0.0000000000
1717675148989,179.0000000000,295.0000000000,463.0000000000,41.0000000000,17.0000000000,0.0000000000
1717675148989,179.0000000000,292.0000000000,460.0000000000,70.0000000000,18.0000000000,0.0000000000
1717675148990,207.0000000000,291.0000000000,455.0000000000,113.0000000000,17.0000000000,0.0000000000
1717675148990,205.0000000000,288.0000000000,452.0000000000,112.0000000000,17.0000000000,0.0000000000
1717675148990,203.0000000000,287.0000000000,449.0000000000,111.0000000000,17.0000000000,0.0000000000
1717675148990,201.0000000000,284.0000000000,447.0000000000,110.0000000000,17.0000000000,0.0000000000
1717675148991,200.0000000000,283.0000000000,496.0000000000,109.0000000000,17.0000000000,0.0000000000
1717675149009,199.0000000000,280.0000000000,491.0000000000,109.0000000000,17.0000000000,0.0000000000
1717675149010,198.0000000000,279.0000000000,486.0000000000,108.0000000000,17.0000000000,0.0000000000
1717675149010,196.0000000000,276.0000000000,482.0000000000,108.0000000000,17.0000000000,0.0000000000
1717675149010,195.0000000000,275.0000000000,478.0000000000,107.0000000000,16.0000000000,0.0000000000
1717675149010,193.0000000000,273.0000000000,473.0000000000,106.0000000000,16.0000000000,0.0000000000
1717675149010,192.0000000000,271.0000000000,470.0000000000,105.0000000000,16.0000000000,0.0000000000
1717675149010,192.0000000000,269.0000000000,466.0000000000,103.0000000000,16.0000000000,0.0000000000
1717675149011,190.0000000000,268.0000000000,489.0000000000,103.0000000000,15.0000000000,0.0000000000
1717675149011,188.0000000000,266.0000000000,515.0000000000,103.0000000000,16.0000000000,0.0000000000
1717675149011,187.0000000000,263.0000000000,510.0000000000,103.0000000000,19.0000000000,0.0000000000
1717675149011,186.0000000000,262.0000000000,506.0000000000,102.0000000000,19.0000000000,0.0000000000
1717675149028,185.0000000000,260.0000000000,502.0000000000,100.0000000000,19.0000000000,0.0000000000
1717675149028,184.0000000000,259.0000000000,496.0000000000,100.0000000000,19.0000000000,0.0000000000
1717675149029,183.0000000000,257.0000000000,492.0000000000,124.0000000000,19.0000000000,0.0000000000
1717675149029,181.0000000000,255.0000000000,487.0000000000,122.0000000000,19.0000000000,0.0000000000
1717675149029,180.0000000000,254.0000000000,484.0000000000,120.0000000000,19.0000000000,0.0000000000
1717675149029,179.0000000000,252.0000000000,480.0000000000,120.0000000000,18.0000000000,0.0000000000
1717675149029,179.0000000000,251.0000000000,476.0000000000,120.0000000000,18.0000000000,0.0000000000
1717675149029,177.0000000000,248.0000000000,472.0000000000,119.0000000000,18.0000000000,0.0000000000
1717675149029,176.0000000000,248.0000000000,468.0000000000,118.0000000000,17.0000000000,0.0000000000
1717675149030,176.0000000000,246.0000000000,464.0000000000,116.0000000000,18.0000000000,0.0000000000
1717675149030,175.0000000000,244.0000000000,470.0000000000,115.0000000000,18.0000000000,0.0000000000
1717675149045,174.0000000000,243.0000000000,566.0000000000,115.0000000000,17.0000000000,0.0000000000
1717675149048,173.0000000000,241.0000000000,559.0000000000,114.0000000000,17.0000000000,0.0000000000
1717675149048,172.0000000000,240.0000000000,553.0000000000,113.0000000000,17.0000000000,0.0000000000
1717675149048,171.0000000000,239.0000000000,547.0000000000,113.0000000000,17.0000000000,0.0000000000
1717675149048,169.0000000000,236.0000000000,543.0000000000,112.0000000000,17.0000000000,0.0000000000
1717675149049,169.0000000000,235.0000000000,539.0000000000,111.0000000000,17.0000000000,0.0000000000
1717675149049,167.0000000000,234.0000000000,534.0000000000,111.0000000000,17.0000000000,0.0000000000
1717675149049,167.0000000000,231.0000000000,528.0000000000,110.0000000000,17.0000000000,0.0000000000
1717675149049,167.0000000000,231.0000000000,524.0000000000,109.0000000000,17.0000000000,0.0000000000
1717675149050,166.0000000000,230.0000000000,519.0000000000,108.0000000000,17.0000000000,0.0000000000
1717675149050,165.0000000000,228.0000000000,515.0000000000,108.0000000000,17.0000000000,0.0000000000
1717675149068,164.0000000000,227.0000000000,510.0000000000,107.0000000000,17.0000000000,0.0000000000
1717675149068,163.0000000000,225.0000000000,505.0000000000,107.0000000000,16.0000000000,0.0000000000
1717675149069,163.0000000000,224.0000000000,502.0000000000,105.0000000000,16.0000000000,0.0000000000
1717675149069,161.0000000000,223.0000000000,497.0000000000,104.0000000000,17.0000000000,0.0000000000
1717675149069,161.0000000000,222.0000000000,493.0000000000,103.0000000000,16.0000000000,0.0000000000
1717675149069,159.0000000000,220.0000000000,499.0000000000,103.0000000000,16.0000000000,0.0000000000
1717675149069,159.0000000000,219.0000000000,496.0000000000,103.0000000000,16.0000000000,0.0000000000
1717675149069,159.0000000000,217.0000000000,491.0000000000,103.0000000000,15.0000000000,0.0000000000
1717675149069,158.0000000000,216.0000000000,487.0000000000,102.0000000000,15.0000000000,0.0000000000
1717675149084,157.0000000000,216.0000000000,483.0000000000,102.0000000000,16.0000000000,0.0000000000
1717675149085,156.0000000000,215.0000000000,480.0000000000,100.0000000000,15.0000000000,0.0000000000
1717675149085,156.0000000000,213.0000000000,476.0000000000,99.0000000000,15.0000000000,0.0000000000
1717675149085,155.0000000000,211.0000000000,472.0000000000,99.0000000000,15.0000000000,0.0000000000
1717675149085,154.0000000000,228.0000000000,468.0000000000,99.0000000000,15.0000000000,0.0000000000
1717675149085,153.0000000000,243.0000000000,464.0000000000,98.0000000000,15.0000000000,0.0000000000
1717675149085,152.0000000000,240.0000000000,460.0000000000,97.0000000000,15.0000000000,0.0000000000
1717675149085,152.0000000000,238.0000000000,457.0000000000,97.0000000000,15.0000000000,0.0000000000
1717675149085,151.0000000000,237.0000000000,455.0000000000,96.0000000000,15.0000000000,0.0000000000
1717675149106,151.0000000000,235.0000000000,451.0000000000,96.0000000000,15.0000000000,0.0000000000
1717675149108,150.0000000000,234.0000000000,448.0000000000,95.0000000000,15.0000000000,0.0000000000
1717675149108,149.0000000000,231.0000000000,445.0000000000,95.0000000000,15.0000000000,0.0000000000
1717675149108,148.0000000000,231.0000000000,441.0000000000,94.0000000000,15.0000000000,0.0000000000
1717675149108,147.0000000000,230.0000000000,439.0000000000,94.0000000000,15.0000000000,0.0000000000
1717675149108,147.0000000000,227.0000000000,435.0000000000,93.0000000000,15.0000000000,0.0000000000
1717675149109,147.0000000000,227.0000000000,432.0000000000,92.0000000000,15.0000000000,0.0000000000
1717675149109,146.0000000000,255.0000000000,430.0000000000,92.0000000000,14.0000000000,0.0000000000
1717675149109,145.0000000000,253.0000000000,427.0000000000,92.0000000000,15.0000000000,0.0000000000
1717675149109,145.0000000000,252.0000000000,423.0000000000,91.0000000000,15.0000000000,0.0000000000
1717675149109,143.0000000000,249.0000000000,422.0000000000,91.0000000000,14.0000000000,0.0000000000
1717675149109,143.0000000000,248.0000000000,419.0000000000,90.0000000000,14.0000000000,0.0000000000
1717675149109,143.0000000000,246.0000000000,415.0000000000,89.0000000000,15.0000000000,0.0000000000
1717675149109,142.0000000000,245.0000000000,487.0000000000,88.0000000000,15.0000000000,0.0000000000
1717675149122,142.0000000000,284.0000000000,482.0000000000,88.0000000000,15.0000000000,0.0000000000
1717675149123,140.0000000000,329.0000000000,478.0000000000,88.0000000000,15.0000000000,0.0000000000
1717675149123,184.0000000000,327.0000000000,473.0000000000,88.0000000000,15.0000000000,0.0000000000
1717675149123,281.0000000000,324.0000000000,470.0000000000,87.0000000000,15.0000000000,0.0000000000
1717675149124,279.0000000000,323.0000000000,466.0000000000,87.0000000000,15.0000000000,0.0000000000
1717675149125,276.0000000000,319.0000000000,489.0000000000,86.0000000000,14.0000000000,0.0000000000
1717675149125,274.0000000000,317.0000000000,484.0000000000,86.0000000000,15.0000000000,0.0000000000
1717675149125,271.0000000000,316.0000000000,480.0000000000,84.0000000000,15.0000000000,0.0000000000
1717675149125,270.0000000000,312.0000000000,476.0000000000,84.0000000000,14.0000000000,0.0000000000
1717675149141,268.0000000000,312.0000000000,472.0000000000,84.0000000000,14.0000000000,0.0000000000
1717675149142,267.0000000000,309.0000000000,469.0000000000,83.0000000000,14.0000000000,0.0000000000
1717675149142,263.0000000000,307.0000000000,465.0000000000,83.0000000000,14.0000000000,0.0000000000
1717675149143,263.0000000000,305.0000000000,461.0000000000,82.0000000000,14.0000000000,0.0000000000
1717675149143,260.0000000000,302.0000000000,458.0000000000,81.0000000000,14.0000000000,0.0000000000
1717675149143,259.0000000000,301.0000000000,454.0000000000,81.0000000000,14.0000000000,0.0000000000
1717675149143,316.0000000000,299.0000000000,451.0000000000,81.0000000000,14.0000000000,0.0000000000
1717675149143,312.0000000000,296.0000000000,448.0000000000,80.0000000000,13.0000000000,0.0000000000
1717675149143,310.0000000000,295.0000000000,444.0000000000,80.0000000000,14.0000000000,0.0000000000
1717675149159,307.0000000000,292.0000000000,440.0000000000,79.0000000000,14.0000000000,0.0000000000
1717675149159,304.0000000000,291.0000000000,436.0000000000,79.0000000000,13.0000000000,0.0000000000
1717675149159,303.0000000000,289.0000000000,434.0000000000,79.0000000000,14.0000000000,0.0000000000
1717675149159,300.0000000000,287.0000000000,431.0000000000,78.0000000000,13.0000000000,0.0000000000
1717675149159,298.0000000000,286.0000000000,428.0000000000,78.0000000000,13.0000000000,0.0000000000
1717675149159,295.0000000000,284.0000000000,423.0000000000,77.0000000000,14.0000000000,0.0000000000
1717675149160,294.0000000000,281.0000000000,420.0000000000,77.0000000000,13.0000000000,0.0000000000
1717675149160,291.0000000000,280.0000000000,419.0000000000,76.0000000000,13.0000000000,0.0000000000
1717675149160,289.0000000000,278.0000000000,415.0000000000,76.0000000000,13.0000000000,0.0000000000
1717675149174,287.0000000000,292.0000000000,413.0000000000,76.0000000000,13.0000000000,0.0000000000
1717675149176,286.0000000000,290.0000000000,409.0000000000,75.0000000000,13.0000000000,0.0000000000
1717675149176,284.0000000000,287.0000000000,408.0000000000,75.0000000000,13.0000000000,0.0000000000
1717675149176,282.0000000000,286.0000000000,405.0000000000,75.0000000000,12.0000000000,0.0000000000
1717675149176,280.0000000000,284.0000000000,401.0000000000,73.0000000000,12.0000000000,0.0000000000
1717675149177,279.0000000000,282.0000000000,399.0000000000,73.0000000000,13.0000000000,0.0000000000
1717675149177,276.0000000000,280.0000000000,397.0000000000,72.0000000000,13.0000000000,0.0000000000
1717675149177,275.0000000000,278.0000000000,394.0000000000,71.0000000000,14.0000000000,0.0000000000
1717675149178,272.0000000000,276.0000000000,391.0000000000,71.0000000000,13.0000000000,0.0000000000
1717675149178,271.0000000000,275.0000000000,390.0000000000,71.0000000000,13.0000000000,0.0000000000
1717675149178,270.0000000000,272.0000000000,387.0000000000,71.0000000000,13.0000000000,0.0000000000
1717675149178,268.0000000000,271.0000000000,384.0000000000,71.0000000000,13.0000000000,0.0000000000
1717675149198,265.0000000000,269.0000000000,383.0000000000,70.0000000000,12.0000000000,0.0000000000
1717675149199,263.0000000000,268.0000000000,380.0000000000,70.0000000000,13.0000000000,0.0000000000
1717675149199,263.0000000000,267.0000000000,377.0000000000,70.0000000000,13.0000000000,0.0000000000
1717675149199,260.0000000000,263.0000000000,376.0000000000,70.0000000000,12.0000000000,0.0000000000
1717675149199,259.0000000000,263.0000000000,374.0000000000,69.0000000000,12.0000000000,0.0000000000
1717675149199,258.0000000000,304.0000000000,371.0000000000,68.0000000000,12.0000000000,0.0000000000
1717675149199,255.0000000000,332.0000000000,420.0000000000,68.0000000000,12.0000000000,0.0000000000
1717675149199,255.0000000000,329.0000000000,486.0000000000,67.0000000000,12.0000000000,0.0000000000
1717675149199,253.0000000000,327.0000000000,482.0000000000,67.0000000000,12.0000000000,0.0000000000
1717675149199,252.0000000000,324.0000000000,477.0000000000,67.0000000000,12.0000000000,0.0000000000
1717675149200,249.0000000000,321.0000000000,473.0000000000,67.0000000000,12.0000000000,0.0000000000
1717675149221,248.0000000000,319.0000000000,470.0000000000,66.0000000000,12.0000000000,0.0000000000
1717675149222,247.0000000000,317.0000000000,465.0000000000,65.0000000000,12.0000000000,0.0000000000
1717675149222,245.0000000000,315.0000000000,462.0000000000,65.0000000000,12.0000000000,0.0000000000
1717675149222,243.0000000000,313.0000000000,458.0000000000,65.0000000000,12.0000000000,0.0000000000
1717675149223,243.0000000000,311.0000000000,455.0000000000,64.0000000000,15.0000000000,0.0000000000
1717675149223,240.0000000000,308.0000000000,451.0000000000,63.0000000000,16.0000000000,0.0000000000
1717675149224,239.0000000000,307.0000000000,448.0000000000,63.0000000000,16.0000000000,0.0000000000
1717675149224,238.0000000000,304.0000000000,513.0000000000,63.0000000000,16.0000000000,0.0000000000
1717675149225,236.0000000000,303.0000000000,513.0000000000,63.0000000000,16.0000000000,0.0000000000
1717675149226,236.0000000000,300.0000000000,509.0000000000,63.0000000000,15.0000000000,0.0000000000
1717675149226,233.0000000000,299.0000000000,504.0000000000,63.0000000000,16.0000000000,0.0000000000
1717675149227,232.0000000000,335.0000000000,500.0000000000,62.0000000000,15.0000000000,0.0000000000
1717675149227,231.0000000000,332.0000000000,496.0000000000,62.0000000000,15.0000000000,0.0000000000
1717675149227,230.0000000000,328.0000000000,492.0000000000,62.0000000000,15.0000000000,0.0000000000
1717675149227,228.0000000000,326.0000000000,488.0000000000,62.0000000000,15.0000000000,0.0000000000
1717675149227,227.0000000000,324.0000000000,483.0000000000,61.0000000000,15.0000000000,0.0000000000
1717675149256,225.0000000000,321.0000000000,480.0000000000,61.0000000000,15.0000000000,0.0000000000
1717675149257,224.0000000000,319.0000000000,476.0000000000,60.0000000000,15.0000000000,0.0000000000
1717675149257,223.0000000000,317.0000000000,473.0000000000,60.0000000000,15.0000000000,0.0000000000
1717675149258,222.0000000000,315.0000000000,569.0000000000,60.0000000000,15.0000000000,0.0000000000
1717675149258,220.0000000000,312.0000000000,563.0000000000,60.0000000000,15.0000000000,0.0000000000
1717675149258,219.0000000000,310.0000000000,558.0000000000,59.0000000000,15.0000000000,0.0000000000
1717675149258,218.0000000000,308.0000000000,551.0000000000,59.0000000000,15.0000000000,0.0000000000
1717675149258,216.0000000000,306.0000000000,548.0000000000,59.0000000000,15.0000000000,0.0000000000
1717675149258,216.0000000000,304.0000000000,543.0000000000,57.0000000000,15.0000000000,0.0000000000
1717675149258,214.0000000000,303.0000000000,538.0000000000,57.0000000000,15.0000000000,0.0000000000
1717675149258,213.0000000000,300.0000000000,534.0000000000,57.0000000000,14.0000000000,0.0000000000
1717675149259,211.0000000000,299.0000000000,529.0000000000,57.0000000000,14.0000000000,0.0000000000
1717675149259,211.0000000000,295.0000000000,526.0000000000,56.0000000000,14.0000000000,0.0000000000
1717675149259,209.0000000000,295.0000000000,569.0000000000,56.0000000000,14.0000000000,0.0000000000
1717675149259,207.0000000000,292.0000000000,580.0000000000,56.0000000000,14.0000000000,0.0000000000
1717675149259,207.0000000000,290.0000000000,575.0000000000,56.0000000000,14.0000000000,0.0000000000
1717675149259,206.0000000000,289.0000000000,569.0000000000,56.0000000000,14.0000000000,0.0000000000
1717675149259,204.0000000000,287.0000000000,565.0000000000,55.0000000000,14.0000000000,0.0000000000
1717675149259,204.0000000000,286.0000000000,560.0000000000,55.0000000000,14.0000000000,0.0000000000
1717675149274,202.0000000000,284.0000000000,555.0000000000,54.0000000000,14.0000000000,0.0000000000
1717675149274,201.0000000000,281.0000000000,550.0000000000,55.0000000000,14.0000000000,0.0000000000
1717675149274,199.0000000000,280.0000000000,544.0000000000,54.0000000000,13.0000000000,0.0000000000
1717675149274,199.0000000000,278.0000000000,541.0000000000,62.0000000000,14.0000000000,0.0000000000
1717675149275,198.0000000000,276.0000000000,536.0000000000,62.0000000000,14.0000000000,0.0000000000
1717675149275,196.0000000000,274.0000000000,531.0000000000,61.0000000000,14.0000000000,0.0000000000
1717675149275,195.0000000000,273.0000000000,527.0000000000,60.0000000000,14.0000000000,0.0000000000
1717675149275,195.0000000000,271.0000000000,523.0000000000,61.0000000000,14.0000000000,0.0000000000
1717675149275,193.0000000000,347.0000000000,519.0000000000,60.0000000000,14.0000000000,0.0000000000
1717675149288,276.0000000000,344.0000000000,513.0000000000,60.0000000000,14.0000000000,0.0000000000
1717675149289,294.0000000000,340.0000000000,510.0000000000,59.0000000000,13.0000000000,0.0000000000
1717675149289,318.0000000000,339.0000000000,506.0000000000,59.0000000000,13.0000000000,0.0000000000
1717675149289,315.0000000000,335.0000000000,502.0000000000,59.0000000000,13.0000000000,0.0000000000
1717675149289,312.0000000000,333.0000000000,499.0000000000,57.0000000000,13.0000000000,0.0000000000
1717675149289,310.0000000000,332.0000000000,494.0000000000,57.0000000000,13.0000000000,0.0000000000
1717675149289,307.0000000000,328.0000000000,491.0000000000,57.0000000000,13.0000000000,0.0000000000
1717675149318,305.0000000000,327.0000000000,487.0000000000,57.0000000000,13.0000000000,0.0000000000
1717675149319,302.0000000000,324.0000000000,483.0000000000,57.0000000000,13.0000000000,0.0000000000
1717675149319,333.0000000000,322.0000000000,480.0000000000,56.0000000000,13.0000000000,0.0000000000
1717675149319,329.0000000000,319.0000000000,476.0000000000,56.0000000000,13.0000000000,0.0000000000
1717675149319,327.0000000000,318.0000000000,472.0000000000,56.0000000000,13.0000000000,0.0000000000
1717675149320,324.0000000000,316.0000000000,468.0000000000,55.0000000000,13.0000000000,0.0000000000
1717675149320,322.0000000000,313.0000000000,564.0000000000,55.0000000000,13.0000000000,0.0000000000
1717675149320,319.0000000000,311.0000000000,558.0000000000,55.0000000000,13.0000000000,0.0000000000
1717675149320,318.0000000000,310.0000000000,552.0000000000,54.0000000000,13.0000000000,0.0000000000
1717675149320,316.0000000000,307.0000000000,547.0000000000,54.0000000000,12.0000000000,0.0000000000
1717675149321,313.0000000000,305.0000000000,543.0000000000,54.0000000000,14.0000000000,0.0000000000
1717675149321,311.0000000000,303.0000000000,539.0000000000,53.0000000000,14.0000000000,0.0000000000
1717675149321,308.0000000000,302.0000000000,534.0000000000,53.0000000000,13.0000000000,0.0000000000
1717675149321,306.0000000000,299.0000000000,527.0000000000,52.0000000000,14.0000000000,0.0000000000
1717675149321,351.0000000000,297.0000000000,525.0000000000,107.0000000000,14.0000000000,0.0000000000
1717675149322,347.0000000000,295.0000000000,519.0000000000,111.0000000000,13.0000000000,0.0000000000
1717675149322,344.0000000000,293.0000000000,515.0000000000,110.0000000000,13.0000000000,0.0000000000
1717675149322,341.0000000000,291.0000000000,512.0000000000,109.0000000000,13.0000000000,0.0000000000
1717675149353,339.0000000000,289.0000000000,507.0000000000,108.0000000000,13.0000000000,0.0000000000
1717675149354,335.0000000000,287.0000000000,503.0000000000,107.0000000000,13.0000000000,0.0000000000
1717675149354,333.0000000000,286.0000000000,498.0000000000,106.0000000000,12.0000000000,0.0000000000
1717675149354,331.0000000000,284.0000000000,495.0000000000,105.0000000000,13.0000000000,0.0000000000
1717675149354,327.0000000000,281.0000000000,490.0000000000,103.0000000000,13.0000000000,0.0000000000
1717675149354,326.0000000000,280.0000000000,572.0000000000,103.0000000000,13.0000000000,0.0000000000
1717675149354,323.0000000000,279.0000000000,613.0000000000,139.0000000000,12.0000000000,0.0000000000
1717675149354,321.0000000000,276.0000000000,608.0000000000,137.0000000000,12.0000000000,0.0000000000
1717675149355,318.0000000000,275.0000000000,601.0000000000,135.0000000000,12.0000000000,0.0000000000
1717675149355,316.0000000000,273.0000000000,595.0000000000,135.0000000000,12.0000000000,0.0000000000
1717675149355,313.0000000000,271.0000000000,588.0000000000,134.0000000000,12.0000000000,0.0000000000
1717675149355,312.0000000000,270.0000000000,583.0000000000,134.0000000000,12.0000000000,0.0000000000
1717675149355,310.0000000000,268.0000000000,578.0000000000,132.0000000000,12.0000000000,0.0000000000
1717675149355,307.0000000000,265.0000000000,573.0000000000,131.0000000000,14.0000000000,0.0000000000
1717675149355,305.0000000000,263.0000000000,568.0000000000,131.0000000000,14.0000000000,0.0000000000
1717675149356,303.0000000000,263.0000000000,561.0000000000,129.0000000000,14.0000000000,0.0000000000
1717675149356,300.0000000000,261.0000000000,557.0000000000,129.0000000000,14.0000000000,0.0000000000
1717675149372,299.0000000000,259.0000000000,551.0000000000,127.0000000000,13.0000000000,0.0000000000
1717675149374,296.0000000000,258.0000000000,547.0000000000,127.0000000000,13.0000000000,0.0000000000
1717675149374,295.0000000000,255.0000000000,542.0000000000,126.0000000000,13.0000000000,0.0000000000
1717675149374,294.0000000000,255.0000000000,539.0000000000,125.0000000000,12.0000000000,0.0000000000
1717675149375,292.0000000000,253.0000000000,534.0000000000,124.0000000000,13.0000000000,0.0000000000
1717675149375,291.0000000000,252.0000000000,528.0000000000,124.0000000000,13.0000000000,0.0000000000
1717675149375,289.0000000000,250.0000000000,524.0000000000,123.0000000000,13.0000000000,0.0000000000
1717675149375,287.0000000000,248.0000000000,520.0000000000,121.0000000000,26.0000000000,0.0000000000
1717675149376,284.0000000000,247.0000000000,516.0000000000,121.0000000000,25.0000000000,0.0000000000
1717675149376,284.0000000000,246.0000000000,511.0000000000,120.0000000000,25.0000000000,0.0000000000
1717675149376,304.0000000000,244.0000000000,507.0000000000,120.0000000000,24.0000000000,0.0000000000
1717675149393,302.0000000000,243.0000000000,504.0000000000,119.0000000000,24.0000000000,0.0000000000
1717675149394,299.0000000000,241.0000000000,499.0000000000,118.0000000000,24.0000000000,0.0000000000
1717675149394,296.0000000000,240.0000000000,495.0000000000,118.0000000000,24.0000000000,0.0000000000
1717675149394,294.0000000000,238.0000000000,491.0000000000,116.0000000000,24.0000000000,0.0000000000
1717675149394,292.0000000000,236.0000000000,487.0000000000,115.0000000000,24.0000000000,0.0000000000
1717675149394,291.0000000000,236.0000000000,483.0000000000,115.0000000000,24.0000000000,0.0000000000
1717675149394,287.0000000000,255.0000000000,480.0000000000,114.0000000000,24.0000000000,0.0000000000
1717675149395,286.0000000000,254.0000000000,476.0000000000,113.0000000000,23.0000000000,0.0000000000
1717675149395,284.0000000000,252.0000000000,473.0000000000,112.0000000000,23.0000000000,0.0000000000
1717675149395,281.0000000000,249.0000000000,468.0000000000,112.0000000000,23.0000000000,0.0000000000
1717675149395,280.0000000000,248.0000000000,465.0000000000,112.0000000000,24.0000000000,0.0000000000
1717675149413,278.0000000000,246.0000000000,462.0000000000,111.0000000000,23.0000000000,0.0000000000
1717675149414,276.0000000000,244.0000000000,457.0000000000,110.0000000000,23.0000000000,0.0000000000
1717675149414,327.0000000000,243.0000000000,455.0000000000,109.0000000000,22.0000000000,0.0000000000
1717675149414,326.0000000000,241.0000000000,567.0000000000,108.0000000000,22.0000000000,0.0000000000
1717675149414,323.0000000000,285.0000000000,560.0000000000,108.0000000000,22.0000000000,0.0000000000
1717675149414,319.0000000000,289.0000000000,554.0000000000,108.0000000000,22.0000000000,0.0000000000
1717675149414,318.0000000000,287.0000000000,550.0000000000,107.0000000000,22.0000000000,0.0000000000
1717675149414,315.0000000000,284.0000000000,543.0000000000,105.0000000000,22.0000000000,0.0000000000
1717675149414,312.0000000000,283.0000000000,539.0000000000,105.0000000000,22.0000000000,0.0000000000
1717675149415,311.0000000000,287.0000000000,534.0000000000,105.0000000000,22.0000000000,0.0000000000
1717675149415,308.0000000000,371.0000000000,609.0000000000,104.0000000000,21.0000000000,0.0000000000
1717675149428,306.0000000000,367.0000000000,603.0000000000,103.0000000000,21.0000000000,0.0000000000
1717675149429,304.0000000000,364.0000000000,595.0000000000,103.0000000000,21.0000000000,0.0000000000
1717675149429,302.0000000000,361.0000000000,590.0000000000,102.0000000000,21.0000000000,0.0000000000
1717675149429,300.0000000000,359.0000000000,585.0000000000,102.0000000000,21.0000000000,0.0000000000
1717675149429,297.0000000000,355.0000000000,579.0000000000,101.0000000000,20.0000000000,0.0000000000
1717675149429,295.0000000000,353.0000000000,574.0000000000,100.0000000000,20.0000000000,0.0000000000
1717675149429,292.0000000000,351.0000000000,568.0000000000,99.0000000000,20.0000000000,0.0000000000
1717675149445,291.0000000000,348.0000000000,563.0000000000,99.0000000000,22.0000000000,0.0000000000
1717675149445,289.0000000000,345.0000000000,559.0000000000,99.0000000000,21.0000000000,0.0000000000
1717675149446,287.0000000000,344.0000000000,553.0000000000,98.0000000000,21.0000000000,0.0000000000
1717675149446,285.0000000000,340.0000000000,548.0000000000,98.0000000000,21.0000000000,0.0000000000
1717675149446,284.0000000000,339.0000000000,638.0000000000,97.0000000000,21.0000000000,0.0000000000
1717675149446,281.0000000000,335.0000000000,632.0000000000,96.0000000000,21.0000000000,0.0000000000
1717675149446,280.0000000000,334.0000000000,625.0000000000,96.0000000000,20.0000000000,0.0000000000
1717675149446,278.0000000000,332.0000000000,620.0000000000,95.0000000000,20.0000000000,0.0000000000
1717675149446,276.0000000000,329.0000000000,614.0000000000,95.0000000000,20.0000000000,0.0000000000
1717675149462,274.0000000000,327.0000000000,607.0000000000,94.0000000000,20.0000000000,0.0000000000
1717675149462,291.0000000000,411.0000000000,603.0000000000,97.0000000000,28.0000000000,0.0000000000
1717675149462,287.0000000000,407.0000000000,596.0000000000,96.0000000000,27.0000000000,0.0000000000
1717675149463,286.0000000000,403.0000000000,591.0000000000,96.0000000000,27.0000000000,0.0000000000
1717675149463,284.0000000000,399.0000000000,585.0000000000,95.0000000000,27.0000000000,0.0000000000
1717675149463,281.0000000000,396.0000000000,582.0000000000,95.0000000000,27.0000000000,0.0000000000
1717675149463,280.0000000000,393.0000000000,606.0000000000,120.0000000000,27.0000000000,0.0000000000
1717675149463,278.0000000000,391.0000000000,599.0000000000,118.0000000000,27.0000000000,0.0000000000
1717675149463,275.0000000000,387.0000000000,591.0000000000,117.0000000000,26.0000000000,0.0000000000
1717675149482,273.0000000000,384.0000000000,588.0000000000,115.0000000000,26.0000000000,0.0000000000
1717675149483,271.0000000000,380.0000000000,582.0000000000,115.0000000000,26.0000000000,0.0000000000
1717675149483,271.0000000000,379.0000000000,575.0000000000,115.0000000000,25.0000000000,0.0000000000
1717675149483,268.0000000000,468.0000000000,571.0000000000,114.0000000000,25.0000000000,0.0000000000
1717675149483,267.0000000000,463.0000000000,567.0000000000,113.0000000000,25.0000000000,0.0000000000
1717675149484,265.0000000000,457.0000000000,561.0000000000,112.0000000000,25.0000000000,0.0000000000
1717675149484,263.0000000000,455.0000000000,556.0000000000,112.0000000000,25.0000000000,0.0000000000
1717675149484,262.0000000000,451.0000000000,551.0000000000,111.0000000000,25.0000000000,0.0000000000
1717675149484,259.0000000000,446.0000000000,547.0000000000,110.0000000000,24.0000000000,0.0000000000
1717675149485,258.0000000000,443.0000000000,633.0000000000,109.0000000000,24.0000000000,0.0000000000
1717675149485,257.0000000000,440.0000000000,625.0000000000,109.0000000000,24.0000000000,0.0000000000
1717675149485,255.0000000000,435.0000000000,619.0000000000,108.0000000000,24.0000000000,0.0000000000
1717675149485,254.0000000000,432.0000000000,614.0000000000,108.0000000000,24.0000000000,0.0000000000
1717675149502,252.0000000000,428.0000000000,608.0000000000,107.0000000000,24.0000000000,0.0000000000
1717675149502,251.0000000000,425.0000000000,601.0000000000,105.0000000000,24.0000000000,0.0000000000
1717675149502,248.0000000000,422.0000000000,595.0000000000,105.0000000000,24.0000000000,0.0000000000
1717675149502,248.0000000000,419.0000000000,590.0000000000,104.0000000000,24.0000000000,0.0000000000
1717675149503,246.0000000000,415.0000000000,583.0000000000,103.0000000000,24.0000000000,0.0000000000
1717675149503,244.0000000000,412.0000000000,579.0000000000,103.0000000000,24.0000000000,0.0000000000
1717675149503,243.0000000000,409.0000000000,572.0000000000,103.0000000000,24.0000000000,0.0000000000
1717675149503,241.0000000000,406.0000000000,568.0000000000,103.0000000000,23.0000000000,0.0000000000
1717675149503,240.0000000000,403.0000000000,564.0000000000,103.0000000000,23.0000000000,0.0000000000
1717675149519,238.0000000000,399.0000000000,558.0000000000,102.0000000000,23.0000000000,0.0000000000
1717675149520,237.0000000000,398.0000000000,552.0000000000,102.0000000000,23.0000000000,0.0000000000
1717675149520,236.0000000000,394.0000000000,547.0000000000,100.0000000000,23.0000000000,0.0000000000
1717675149520,233.0000000000,391.0000000000,543.0000000000,99.0000000000,24.0000000000,0.0000000000
1717675149520,231.0000000000,388.0000000000,539.0000000000,99.0000000000,23.0000000000,0.0000000000
1717675149520,231.0000000000,385.0000000000,535.0000000000,99.0000000000,23.0000000000,0.0000000000
1717675149520,230.0000000000,383.0000000000,531.0000000000,98.0000000000,23.0000000000,0.0000000000
1717675149520,228.0000000000,380.0000000000,526.0000000000,97.0000000000,23.0000000000,0.0000000000
1717675149520,227.0000000000,377.0000000000,523.0000000000,96.0000000000,22.0000000000,0.0000000000
1717675149536,226.0000000000,376.0000000000,518.0000000000,96.0000000000,22.0000000000,0.0000000000
1717675149536,224.0000000000,372.0000000000,514.0000000000,96.0000000000,22.0000000000,0.0000000000
1717675149536,224.0000000000,369.0000000000,510.0000000000,95.0000000000,22.0000000000,0.0000000000
1717675149536,222.0000000000,368.0000000000,505.0000000000,95.0000000000,22.0000000000,0.0000000000
1717675149536,221.0000000000,365.0000000000,583.0000000000,94.0000000000,22.0000000000,0.0000000000
1717675149536,234.0000000000,364.0000000000,618.0000000000,94.0000000000,22.0000000000,0.0000000000
1717675149537,231.0000000000,359.0000000000,614.0000000000,93.0000000000,22.0000000000,0.0000000000
1717675149537,230.0000000000,359.0000000000,606.0000000000,92.0000000000,22.0000000000,0.0000000000
1717675149537,228.0000000000,355.0000000000,600.0000000000,92.0000000000,22.0000000000,0.0000000000
1717675149551,227.0000000000,353.0000000000,595.0000000000,92.0000000000,22.0000000000,0.0000000000
1717675149552,225.0000000000,352.0000000000,589.0000000000,91.0000000000,21.0000000000,0.0000000000
1717675149553,224.0000000000,349.0000000000,583.0000000000,91.0000000000,21.0000000000,0.0000000000
1717675149553,223.0000000000,347.0000000000,579.0000000000,89.0000000000,21.0000000000,0.0000000000
1717675149553,222.0000000000,344.0000000000,575.0000000000,89.0000000000,20.0000000000,0.0000000000
1717675149553,220.0000000000,431.0000000000,569.0000000000,88.0000000000,20.0000000000,0.0000000000
1717675149554,219.0000000000,427.0000000000,563.0000000000,88.0000000000,20.0000000000,0.0000000000
1717675149554,217.0000000000,422.0000000000,560.0000000000,88.0000000000,20.0000000000,0.0000000000
1717675149554,280.0000000000,419.0000000000,555.0000000000,87.0000000000,20.0000000000,0.0000000000
1717675149555,324.0000000000,415.0000000000,550.0000000000,87.0000000000,20.0000000000,0.0000000000
1717675149555,321.0000000000,412.0000000000,545.0000000000,86.0000000000,20.0000000000,0.0000000000
1717675149555,319.0000000000,409.0000000000,540.0000000000,86.0000000000,19.0000000000,0.0000000000
1717675149570,316.0000000000,406.0000000000,536.0000000000,86.0000000000,19.0000000000,0.0000000000
1717675149571,313.0000000000,403.0000000000,531.0000000000,85.0000000000,19.0000000000,0.0000000000
1717675149571,312.0000000000,399.0000000000,527.0000000000,83.0000000000,19.0000000000,0.0000000000
1717675149571,310.0000000000,398.0000000000,523.0000000000,83.0000000000,19.0000000000,0.0000000000
1717675149571,307.0000000000,394.0000000000,519.0000000000,83.0000000000,19.0000000000,0.0000000000
1717675149571,305.0000000000,391.0000000000,515.0000000000,83.0000000000,19.0000000000,0.0000000000
1717675149571,303.0000000000,388.0000000000,511.0000000000,82.0000000000,19.0000000000,0.0000000000
1717675149571,300.0000000000,385.0000000000,507.0000000000,82.0000000000,19.0000000000,0.0000000000
1717675149572,299.0000000000,384.0000000000,503.0000000000,82.0000000000,19.0000000000,0.0000000000
1717675149586,295.0000000000,380.0000000000,499.0000000000,81.0000000000,19.0000000000,0.0000000000
1717675149586,295.0000000000,377.0000000000,496.0000000000,81.0000000000,19.0000000000,0.0000000000
1717675149587,292.0000000000,375.0000000000,492.0000000000,81.0000000000,19.0000000000,0.0000000000
1717675149587,291.0000000000,372.0000000000,487.0000000000,79.0000000000,18.0000000000,0.0000000000
1717675149587,287.0000000000,370.0000000000,483.0000000000,79.0000000000,19.0000000000,0.0000000000
1717675149587,287.0000000000,368.0000000000,481.0000000000,81.0000000000,18.0000000000,0.0000000000
1717675149587,285.0000000000,364.0000000000,478.0000000000,109.0000000000,18.0000000000,0.0000000000
1717675149587,283.0000000000,362.0000000000,473.0000000000,108.0000000000,19.0000000000,0.0000000000
1717675149587,281.0000000000,359.0000000000,470.0000000000,108.0000000000,45.0000000000,0.0000000000
1717675149602,279.0000000000,357.0000000000,467.0000000000,106.0000000000,44.0000000000,0.0000000000
1717675149604,277.0000000000,354.0000000000,463.0000000000,105.0000000000,44.0000000000,0.0000000000
1717675149604,275.0000000000,352.0000000000,460.0000000000,104.0000000000,43.0000000000,0.0000000000
1717675149604,273.0000000000,350.0000000000,455.0000000000,103.0000000000,43.0000000000,0.0000000000
1717675149604,271.0000000000,347.0000000000,540.0000000000,103.0000000000,43.0000000000,0.0000000000
1717675149605,269.0000000000,344.0000000000,551.0000000000,103.0000000000,42.0000000000,0.0000000000
1717675149605,268.0000000000,343.0000000000,547.0000000000,102.0000000000,41.0000000000,0.0000000000
1717675149605,265.0000000000,340.0000000000,541.0000000000,102.0000000000,41.0000000000,0.0000000000
1717675149605,263.0000000000,338.0000000000,537.0000000000,100.0000000000,41.0000000000,0.0000000000
1717675149618,263.0000000000,335.0000000000,531.0000000000,100.0000000000,41.0000000000,0.0000000000
1717675149619,260.0000000000,334.0000000000,527.0000000000,99.0000000000,39.0000000000,0.0000000000
1717675149619,259.0000000000,332.0000000000,523.0000000000,98.0000000000,40.0000000000,0.0000000000
1717675149619,257.0000000000,329.0000000000,519.0000000000,98.0000000000,39.0000000000,0.0000000000
1717675149619,355.0000000000,327.0000000000,513.0000000000,97.0000000000,39.0000000000,0.0000000000
1717675149619,352.0000000000,326.0000000000,510.0000000000,97.0000000000,39.0000000000,0.0000000000
1717675149619,348.0000000000,323.0000000000,505.0000000000,96.0000000000,39.0000000000,0.0000000000
1717675149619,345.0000000000,321.0000000000,560.0000000000,96.0000000000,39.0000000000,0.0000000000
1717675149619,343.0000000000,319.0000000000,555.0000000000,96.0000000000,39.0000000000,0.0000000000
1717675149633,340.0000000000,318.0000000000,548.0000000000,95.0000000000,39.0000000000,0.0000000000
1717675149634,337.0000000000,316.0000000000,545.0000000000,94.0000000000,39.0000000000,0.0000000000
1717675149634,335.0000000000,355.0000000000,540.0000000000,93.0000000000,39.0000000000,0.0000000000
1717675149634,333.0000000000,351.0000000000,536.0000000000,93.0000000000,38.0000000000,0.0000000000
1717675149634,331.0000000000,349.0000000000,530.0000000000,92.0000000000,38.0000000000,0.0000000000
1717675149634,327.0000000000,345.0000000000,526.0000000000,92.0000000000,38.0000000000,0.0000000000
1717675149634,326.0000000000,344.0000000000,521.0000000000,91.0000000000,37.0000000000,0.0000000000
1717675149650,323.0000000000,341.0000000000,517.0000000000,90.0000000000,37.0000000000,0.0000000000
1717675149651,321.0000000000,338.0000000000,513.0000000000,89.0000000000,37.0000000000,0.0000000000
1717675149651,319.0000000000,336.0000000000,508.0000000000,89.0000000000,37.0000000000,0.0000000000
1717675149652,316.0000000000,334.0000000000,504.0000000000,88.0000000000,36.0000000000,0.0000000000
1717675149652,341.0000000000,331.0000000000,500.0000000000,88.0000000000,35.0000000000,0.0000000000
1717675149652,375.0000000000,329.0000000000,496.0000000000,88.0000000000,35.0000000000,0.0000000000
1717675149652,371.0000000000,327.0000000000,493.0000000000,88.0000000000,35.0000000000,0.0000000000
1717675149653,369.0000000000,325.0000000000,488.0000000000,87.0000000000,35.0000000000,0.0000000000
1717675149653,366.0000000000,323.0000000000,486.0000000000,86.0000000000,35.0000000000,0.0000000000
1717675149653,363.0000000000,319.0000000000,481.0000000000,86.0000000000,35.0000000000,0.0000000000
1717675149653,359.0000000000,318.0000000000,477.0000000000,86.0000000000,34.0000000000,0.0000000000
1717675149668,357.0000000000,316.0000000000,473.0000000000,85.0000000000,34.0000000000,0.0000000000
1717675149669,355.0000000000,314.0000000000,470.0000000000,84.0000000000,35.0000000000,0.0000000000
1717675149669,352.0000000000,312.0000000000,467.0000000000,83.0000000000,35.0000000000,0.0000000000
1717675149669,350.0000000000,311.0000000000,463.0000000000,83.0000000000,34.0000000000,0.0000000000
1717675149669,347.0000000000,307.0000000000,460.0000000000,83.0000000000,34.0000000000,0.0000000000
1717675149669,344.0000000000,306.0000000000,456.0000000000,82.0000000000,33.0000000000,0.0000000000
1717675149669,342.0000000000,305.0000000000,453.0000000000,81.0000000000,33.0000000000,0.0000000000
1717675149670,339.0000000000,303.0000000000,451.0000000000,81.0000000000,33.0000000000,0.0000000000
1717675149670,337.0000000000,301.0000000000,447.0000000000,81.0000000000,33.0000000000,0.0000000000
1717675149684,335.0000000000,299.0000000000,444.0000000000,80.0000000000,32.0000000000,0.0000000000
1717675149685,332.0000000000,297.0000000000,440.0000000000,80.0000000000,32.0000000000,0.0000000000
1717675149686,330.0000000000,295.0000000000,438.0000000000,79.0000000000,32.0000000000,0.0000000000
1717675149686,327.0000000000,294.0000000000,435.0000000000,79.0000000000,32.0000000000,0.0000000000
1717675149686,326.0000000000,292.0000000000,432.0000000000,79.0000000000,31.0000000000,0.0000000000
1717675149686,323.0000000000,291.0000000000,430.0000000000,78.0000000000,31.0000000000,0.0000000000
1717675149687,419.0000000000,380.0000000000,426.0000000000,78.0000000000,31.0000000000,0.0000000000
1717675149687,415.0000000000,376.0000000000,487.0000000000,77.0000000000,31.0000000000,0.0000000000
1717675149687,412.0000000000,377.0000000000,484.0000000000,77.0000000000,31.0000000000,0.0000000000
1717675149706,408.0000000000,375.0000000000,480.0000000000,78.0000000000,31.0000000000,0.0000000000
1717675149706,404.0000000000,371.0000000000,476.0000000000,78.0000000000,31.0000000000,0.0000000000
1717675149707,401.0000000000,369.0000000000,472.0000000000,78.0000000000,31.0000000000,0.0000000000
1717675149707,398.0000000000,366.0000000000,468.0000000000,77.0000000000,31.0000000000,0.0000000000
1717675149707,395.0000000000,363.0000000000,464.0000000000,77.0000000000,31.0000000000,0.0000000000
1717675149707,391.0000000000,359.0000000000,460.0000000000,76.0000000000,31.0000000000,0.0000000000
1717675149708,389.0000000000,358.0000000000,457.0000000000,76.0000000000,31.0000000000,0.0000000000
1717675149708,385.0000000000,355.0000000000,454.0000000000,76.0000000000,31.0000000000,0.0000000000
1717675149708,384.0000000000,352.0000000000,451.0000000000,75.0000000000,30.0000000000,0.0000000000
1717675149708,380.0000000000,350.0000000000,516.0000000000,75.0000000000,30.0000000000,0.0000000000
1717675149708,377.0000000000,348.0000000000,510.0000000000,75.0000000000,30.0000000000,0.0000000000
1717675149708,376.0000000000,345.0000000000,507.0000000000,74.0000000000,29.0000000000,0.0000000000
1717675149723,372.0000000000,344.0000000000,501.0000000000,73.0000000000,30.0000000000,0.0000000000
1717675149724,369.0000000000,340.0000000000,498.0000000000,148.0000000000,29.0000000000,0.0000000000
1717675149724,367.0000000000,338.0000000000,493.0000000000,154.0000000000,29.0000000000,0.0000000000
1717675149724,364.0000000000,335.0000000000,487.0000000000,152.0000000000,28.0000000000,0.0000000000
1717675149725,361.0000000000,333.0000000000,483.0000000000,152.0000000000,29.0000000000,0.0000000000
1717675149725,359.0000000000,331.0000000000,480.0000000000,151.0000000000,28.0000000000,0.0000000000
1717675149725,355.0000000000,327.0000000000,476.0000000000,149.0000000000,28.0000000000,0.0000000000
1717675149725,353.0000000000,327.0000000000,472.0000000000,148.0000000000,28.0000000000,0.0000000000
1717675149725,351.0000000000,324.0000000000,467.0000000000,147.0000000000,28.0000000000,0.0000000000
1717675149726,350.0000000000,322.0000000000,465.0000000000,146.0000000000,28.0000000000,0.0000000000
1717675149726,348.0000000000,319.0000000000,461.0000000000,145.0000000000,28.0000000000,0.0000000000
1717675149742,345.0000000000,318.0000000000,457.0000000000,144.0000000000,28.0000000000,0.0000000000
1717675149743,343.0000000000,316.0000000000,454.0000000000,143.0000000000,27.0000000000,0.0000000000
1717675149743,339.0000000000,313.0000000000,450.0000000000,143.0000000000,27.0000000000,0.0000000000
1717675149743,337.0000000000,312.0000000000,447.0000000000,142.0000000000,27.0000000000,0.0000000000
1717675149743,335.0000000000,308.0000000000,443.0000000000,141.0000000000,27.0000000000,0.0000000000
1717675149743,332.0000000000,307.0000000000,440.0000000000,140.0000000000,27.0000000000,0.0000000000
1717675149743,331.0000000000,305.0000000000,435.0000000000,139.0000000000,26.0000000000,0.0000000000
1717675149744,327.0000000000,303.0000000000,433.0000000000,137.0000000000,27.0000000000,0.0000000000
1717675149744,326.0000000000,301.0000000000,430.0000000000,136.0000000000,26.0000000000,0.0000000000
1717675149757,323.0000000000,299.0000000000,425.0000000000,135.0000000000,25.0000000000,0.0000000000
1717675149759,321.0000000000,297.0000000000,423.0000000000,135.0000000000,25.0000000000,0.0000000000
1717675149759,319.0000000000,295.0000000000,420.0000000000,134.0000000000,25.0000000000,0.0000000000
1717675149759,317.0000000000,292.0000000000,417.0000000000,134.0000000000,25.0000000000,0.0000000000
1717675149759,315.0000000000,291.0000000000,414.0000000000,132.0000000000,25.0000000000,0.0000000000
1717675149760,313.0000000000,289.0000000000,411.0000000000,131.0000000000,25.0000000000,0.0000000000
1717675149760,311.0000000000,287.0000000000,408.0000000000,131.0000000000,25.0000000000,0.0000000000
1717675149760,308.0000000000,286.0000000000,406.0000000000,130.0000000000,25.0000000000,0.0000000000
1717675149779,307.0000000000,284.0000000000,403.0000000000,129.0000000000,24.0000000000,0.0000000000
1717675149780,304.0000000000,283.0000000000,399.0000000000,128.0000000000,24.0000000000,0.0000000000
1717675149780,303.0000000000,280.0000000000,398.0000000000,127.0000000000,24.0000000000,0.0000000000
1717675149780,301.0000000000,280.0000000000,395.0000000000,127.0000000000,24.0000000000,0.0000000000
1717675149780,299.0000000000,278.0000000000,396.0000000000,126.0000000000,24.0000000000,0.0000000000
1717675149780,296.0000000000,276.0000000000,393.0000000000,125.0000000000,24.0000000000,0.0000000000
1717675149780,295.0000000000,275.0000000000,391.0000000000,124.0000000000,24.0000000000,0.0000000000
1717675149780,293.0000000000,271.0000000000,387.0000000000,124.0000000000,24.0000000000,0.0000000000
1717675149780,291.0000000000,271.0000000000,385.0000000000,124.0000000000,24.0000000000,0.0000000000
1717675149780,289.0000000000,270.0000000000,383.0000000000,123.0000000000,24.0000000000,0.0000000000
1717675149780,287.0000000000,272.0000000000,381.0000000000,121.0000000000,23.0000000000,0.0000000000
1717675149806,286.0000000000,344.0000000000,377.0000000000,120.0000000000,23.0000000000,0.0000000000
1717675149807,284.0000000000,343.0000000000,438.0000000000,120.0000000000,23.0000000000,0.0000000000
1717675149807,283.0000000000,411.0000000000,432.0000000000,119.0000000000,23.0000000000,0.0000000000
1717675149808,280.0000000000,408.0000000000,430.0000000000,209.0000000000,29.0000000000,0.0000000000
1717675149808,279.0000000000,403.0000000000,425.0000000000,206.0000000000,65.0000000000,0.0000000000
1717675149808,310.0000000000,399.0000000000,526.0000000000,204.0000000000,63.0000000000,0.0000000000
1717675149808,364.0000000000,397.0000000000,519.0000000000,203.0000000000,63.0000000000,0.0000000000
1717675149808,361.0000000000,393.0000000000,513.0000000000,201.0000000000,63.0000000000,0.0000000000
1717675149808,358.0000000000,391.0000000000,510.0000000000,199.0000000000,63.0000000000,0.0000000000
1717675149809,355.0000000000,387.0000000000,504.0000000000,198.0000000000,62.0000000000,0.0000000000
1717675149809,352.0000000000,384.0000000000,500.0000000000,196.0000000000,62.0000000000,0.0000000000
1717675149809,350.0000000000,382.0000000000,496.0000000000,195.0000000000,61.0000000000,0.0000000000
1717675149809,347.0000000000,379.0000000000,528.0000000000,194.0000000000,61.0000000000,0.0000000000
1717675149809,344.0000000000,376.0000000000,571.0000000000,192.0000000000,60.0000000000,0.0000000000
1717675149809,342.0000000000,374.0000000000,564.0000000000,192.0000000000,60.0000000000,0.0000000000
1717675149810,353.0000000000,371.0000000000,559.0000000000,190.0000000000,59.0000000000,0.0000000000
1717675149825,354.0000000000,368.0000000000,554.0000000000,189.0000000000,60.0000000000,0.0000000000
1717675149825,351.0000000000,364.0000000000,548.0000000000,188.0000000000,59.0000000000,0.0000000000
1717675149825,348.0000000000,363.0000000000,543.0000000000,187.0000000000,59.0000000000,0.0000000000
1717675149825,345.0000000000,359.0000000000,538.0000000000,185.0000000000,57.0000000000,0.0000000000
1717675149825,343.0000000000,357.0000000000,534.0000000000,184.0000000000,57.0000000000,0.0000000000
1717675149826,339.0000000000,354.0000000000,529.0000000000,183.0000000000,57.0000000000,0.0000000000
1717675149826,337.0000000000,361.0000000000,524.0000000000,182.0000000000,57.0000000000,0.0000000000
1717675149826,335.0000000000,359.0000000000,519.0000000000,180.0000000000,56.0000000000,0.0000000000
1717675149845,332.0000000000,355.0000000000,516.0000000000,179.0000000000,56.0000000000,0.0000000000
1717675149846,330.0000000000,353.0000000000,512.0000000000,179.0000000000,56.0000000000,0.0000000000
1717675149846,327.0000000000,351.0000000000,534.0000000000,177.0000000000,56.0000000000,0.0000000000
1717675149846,326.0000000000,348.0000000000,528.0000000000,176.0000000000,55.0000000000,0.0000000000
1717675149847,323.0000000000,345.0000000000,524.0000000000,175.0000000000,55.0000000000,0.0000000000
1717675149847,319.0000000000,343.0000000000,519.0000000000,174.0000000000,54.0000000000,0.0000000000
1717675149847,319.0000000000,340.0000000000,515.0000000000,174.0000000000,54.0000000000,0.0000000000
1717675149847,412.0000000000,411.0000000000,510.0000000000,172.0000000000,54.0000000000,0.0000000000
1717675149847,408.0000000000,406.0000000000,506.0000000000,171.0000000000,53.0000000000,0.0000000000
1717675149847,403.0000000000,403.0000000000,502.0000000000,169.0000000000,53.0000000000,0.0000000000
1717675149847,399.0000000000,399.0000000000,497.0000000000,168.0000000000,52.0000000000,0.0000000000
1717675149864,396.0000000000,396.0000000000,493.0000000000,167.0000000000,52.0000000000,0.0000000000
1717675149865,393.0000000000,393.0000000000,489.0000000000,167.0000000000,51.0000000000,0.0000000000
1717675149865,390.0000000000,390.0000000000,486.0000000000,166.0000000000,51.0000000000,0.0000000000
1717675149865,387.0000000000,386.0000000000,481.0000000000,164.0000000000,51.0000000000,0.0000000000
1717675149865,384.0000000000,429.0000000000,478.0000000000,163.0000000000,51.0000000000,0.0000000000
1717675149866,380.0000000000,433.0000000000,473.0000000000,163.0000000000,50.0000000000,0.0000000000
1717675149866,377.0000000000,430.0000000000,471.0000000000,161.0000000000,50.0000000000,0.0000000000
1717675149866,375.0000000000,425.0000000000,467.0000000000,160.0000000000,49.0000000000,0.0000000000
1717675149866,372.0000000000,423.0000000000,463.0000000000,159.0000000000,49.0000000000,0.0000000000
1717675149866,369.0000000000,419.0000000000,460.0000000000,159.0000000000,49.0000000000,0.0000000000
1717675149866,367.0000000000,415.0000000000,455.0000000000,158.0000000000,49.0000000000,0.0000000000
1717675149892,364.0000000000,412.0000000000,503.0000000000,157.0000000000,49.0000000000,0.0000000000
1717675149893,361.0000000000,409.0000000000,497.0000000000,156.0000000000,48.0000000000,0.0000000000
1717675149893,358.0000000000,407.0000000000,493.0000000000,155.0000000000,48.0000000000,0.0000000000
1717675149893,355.0000000000,403.0000000000,489.0000000000,153.0000000000,48.0000000000,0.0000000000
1717675149893,353.0000000000,433.0000000000,485.0000000000,152.0000000000,48.0000000000,0.0000000000
1717675149893,455.0000000000,459.0000000000,480.0000000000,152.0000000000,47.0000000000,0.0000000000
1717675149893,470.0000000000,454.0000000000,476.0000000000,152.0000000000,47.0000000000,0.0000000000
1717675149894,464.0000000000,449.0000000000,472.0000000000,150.0000000000,46.0000000000,0.0000000000
1717675149894,460.0000000000,446.0000000000,468.0000000000,148.0000000000,46.0000000000,0.0000000000
1717675149894,455.0000000000,443.0000000000,464.0000000000,148.0000000000,46.0000000000,0.0000000000
1717675149894,451.0000000000,439.0000000000,460.0000000000,147.0000000000,46.0000000000,0.0000000000
1717675149894,448.0000000000,435.0000000000,458.0000000000,146.0000000000,46.0000000000,0.0000000000
1717675149895,444.0000000000,431.0000000000,454.0000000000,146.0000000000,46.0000000000,0.0000000000
1717675149895,440.0000000000,428.0000000000,464.0000000000,145.0000000000,46.0000000000,0.0000000000
1717675149895,436.0000000000,424.0000000000,527.0000000000,143.0000000000,45.0000000000,0.0000000000
1717675149895,432.0000000000,421.0000000000,523.0000000000,143.0000000000,45.0000000000,0.0000000000
1717675149915,429.0000000000,417.0000000000,519.0000000000,143.0000000000,44.0000000000,0.0000000000
1717675149916,425.0000000000,414.0000000000,513.0000000000,142.0000000000,44.0000000000,0.0000000000
1717675149916,423.0000000000,412.0000000000,508.0000000000,141.0000000000,44.0000000000,0.0000000000
1717675149916,419.0000000000,408.0000000000,504.0000000000,140.0000000000,43.0000000000,0.0000000000
1717675149916,415.0000000000,405.0000000000,513.0000000000,140.0000000000,44.0000000000,0.0000000000
1717675149917,412.0000000000,402.0000000000,508.0000000000,138.0000000000,43.0000000000,0.0000000000
1717675149917,409.0000000000,399.0000000000,504.0000000000,137.0000000000,43.0000000000,0.0000000000
1717675149917,406.0000000000,396.0000000000,499.0000000000,136.0000000000,43.0000000000,0.0000000000
1717675149917,403.0000000000,392.0000000000,496.0000000000,135.0000000000,42.0000000000,0.0000000000
1717675149918,399.0000000000,390.0000000000,491.0000000000,135.0000000000,42.0000000000,0.0000000000
1717675149938,396.0000000000,387.0000000000,487.0000000000,135.0000000000,42.0000000000,0.0000000000
1717675149939,393.0000000000,384.0000000000,482.0000000000,134.0000000000,41.0000000000,0.0000000000
1717675149940,391.0000000000,382.0000000000,479.0000000000,132.0000000000,41.0000000000,0.0000000000
1717675149940,480.0000000000,379.0000000000,476.0000000000,131.0000000000,41.0000000000,0.0000000000
1717675149940,473.0000000000,382.0000000000,471.0000000000,131.0000000000,41.0000000000,0.0000000000
1717675149940,469.0000000000,465.0000000000,467.0000000000,130.0000000000,39.0000000000,0.0000000000
1717675149941,464.0000000000,461.0000000000,463.0000000000,130.0000000000,39.0000000000,0.0000000000
1717675149941,460.0000000000,455.0000000000,460.0000000000,129.0000000000,39.0000000000,0.0000000000
1717675149941,455.0000000000,453.0000000000,455.0000000000,127.0000000000,39.0000000000,0.0000000000
1717675149942,452.0000000000,449.0000000000,452.0000000000,127.0000000000,39.0000000000,0.0000000000
1717675149942,448.0000000000,444.0000000000,449.0000000000,127.0000000000,39.0000000000,0.0000000000
1717675149942,444.0000000000,441.0000000000,446.0000000000,126.0000000000,39.0000000000,0.0000000000
1717675149943,440.0000000000,438.0000000000,442.0000000000,126.0000000000,39.0000000000,0.0000000000
1717675149943,436.0000000000,434.0000000000,439.0000000000,124.0000000000,39.0000000000,0.0000000000
1717675149943,433.0000000000,431.0000000000,435.0000000000,124.0000000000,38.0000000000,0.0000000000
1717675149943,430.0000000000,427.0000000000,432.0000000000,123.0000000000,38.0000000000,0.0000000000
1717675149974,427.0000000000,423.0000000000,430.0000000000,123.0000000000,38.0000000000,0.0000000000
1717675149975,423.0000000000,421.0000000000,425.0000000000,121.0000000000,38.0000000000,0.0000000000
1717675149975,419.0000000000,472.0000000000,423.0000000000,121.0000000000,37.0000000000,0.0000000000
1717675149976,415.0000000000,467.0000000000,420.0000000000,120.0000000000,37.0000000000,0.0000000000
1717675149976,413.0000000000,463.0000000000,417.0000000000,120.0000000000,36.0000000000,0.0000000000
1717675149976,409.0000000000,460.0000000000,414.0000000000,120.0000000000,36.0000000000,0.0000000000
1717675149977,406.0000000000,455.0000000000,411.0000000000,118.0000000000,36.0000000000,0.0000000000
1717675149977,403.0000000000,451.0000000000,496.0000000000,118.0000000000,36.0000000000,0.0000000000
1717675149977,399.0000000000,448.0000000000,504.0000000000,116.0000000000,35.0000000000,0.0000000000
1717675149978,397.0000000000,444.0000000000,498.0000000000,116.0000000000,35.0000000000,0.0000000000
1717675149978,394.0000000000,440.0000000000,494.0000000000,115.0000000000,35.0000000000,0.0000000000
1717675149978,391.0000000000,436.0000000000,490.0000000000,115.0000000000,35.0000000000,0.0000000000
1717675149978,387.0000000000,433.0000000000,486.0000000000,114.0000000000,35.0000000000,0.0000000000
1717675149979,385.0000000000,430.0000000000,481.0000000000,114.0000000000,35.0000000000,0.0000000000
1717675149979,383.0000000000,426.0000000000,477.0000000000,113.0000000000,35.0000000000,0.0000000000
1717675149979,380.0000000000,423.0000000000,473.0000000000,112.0000000000,35.0000000000,0.0000000000
1717675149979,376.0000000000,448.0000000000,470.0000000000,112.0000000000,34.0000000000,0.0000000000
1717675149980,374.0000000000,483.0000000000,465.0000000000,111.0000000000,34.0000000000,0.0000000000
1717675149980,371.0000000000,479.0000000000,462.0000000000,111.0000000000,34.0000000000,0.0000000000
1717675150032,368.0000000000,475.0000000000,458.0000000000,110.0000000000,33.0000000000,0.0000000000
1717675150035,366.0000000000,470.0000000000,455.0000000000,109.0000000000,33.0000000000,0.0000000000
1717675150035,364.0000000000,467.0000000000,451.0000000000,108.0000000000,33.0000000000,0.0000000000
1717675150036,361.0000000000,463.0000000000,447.0000000000,108.0000000000,33.0000000000,0.0000000000
1717675150036,359.0000000000,458.0000000000,444.0000000000,108.0000000000,33.0000000000,0.0000000000
1717675150037,356.0000000000,454.0000000000,440.0000000000,107.0000000000,33.0000000000,0.0000000000
1717675150037,353.0000000000,451.0000000000,436.0000000000,105.0000000000,32.0000000000,0.0000000000
1717675150038,352.0000000000,448.0000000000,433.0000000000,105.0000000000,31.0000000000,0.0000000000
1717675150038,348.0000000000,444.0000000000,431.0000000000,105.0000000000,32.0000000000,0.0000000000
1717675150039,347.0000000000,440.0000000000,427.0000000000,105.0000000000,31.0000000000,0.0000000000
1717675150040,501.0000000000,436.0000000000,486.0000000000,103.0000000000,31.0000000000,0.0000000000
1717675150042,494.0000000000,433.0000000000,481.0000000000,103.0000000000,31.0000000000,0.0000000000
1717675150042,489.0000000000,430.0000000000,476.0000000000,103.0000000000,31.0000000000,0.0000000000
1717675150042,484.0000000000,425.0000000000,473.0000000000,102.0000000000,31.0000000000,0.0000000000
1717675150043,480.0000000000,423.0000000000,469.0000000000,102.0000000000,31.0000000000,0.0000000000
1717675150043,476.0000000000,420.0000000000,465.0000000000,101.0000000000,31.0000000000,0.0000000000
1717675150044,472.0000000000,415.0000000000,460.0000000000,100.0000000000,31.0000000000,0.0000000000
1717675150044,467.0000000000,413.0000000000,457.0000000000,100.0000000000,31.0000000000,0.0000000000
1717675150044,463.0000000000,409.0000000000,454.0000000000,99.0000000000,30.0000000000,0.0000000000
1717675150044,460.0000000000,408.0000000000,449.0000000000,99.0000000000,30.0000000000,0.0000000000
1717675150045,455.0000000000,404.0000000000,447.0000000000,98.0000000000,30.0000000000,0.0000000000
1717675150045,451.0000000000,401.0000000000,443.0000000000,98.0000000000,30.0000000000,0.0000000000
1717675150045,448.0000000000,399.0000000000,492.0000000000,97.0000000000,29.0000000000,0.0000000000
1717675150046,468.0000000000,413.0000000000,487.0000000000,97.0000000000,30.0000000000,0.0000000000
1717675150046,547.0000000000,486.0000000000,483.0000000000,120.0000000000,30.0000000000,0.0000000000
1717675150046,540.0000000000,480.0000000000,480.0000000000,119.0000000000,37.0000000000,0.0000000000
1717675150047,535.0000000000,476.0000000000,475.0000000000,118.0000000000,36.0000000000,0.0000000000
1717675150047,529.0000000000,472.0000000000,471.0000000000,118.0000000000,36.0000000000,0.0000000000
1717675150047,524.0000000000,467.0000000000,466.0000000000,116.0000000000,35.0000000000,0.0000000000
1717675150048,519.0000000000,463.0000000000,463.0000000000,115.0000000000,35.0000000000,0.0000000000
1717675150048,514.0000000000,460.0000000000,459.0000000000,115.0000000000,35.0000000000,0.0000000000
1717675150048,510.0000000000,455.0000000000,455.0000000000,114.0000000000,35.0000000000,0.0000000000
1717675150048,505.0000000000,452.0000000000,451.0000000000,113.0000000000,35.0000000000,0.0000000000
1717675150049,500.0000000000,448.0000000000,448.0000000000,113.0000000000,34.0000000000,0.0000000000
1717675150049,496.0000000000,494.0000000000,444.0000000000,112.0000000000,34.0000000000,0.0000000000
1717675150049,492.0000000000,489.0000000000,512.0000000000,112.0000000000,34.0000000000,0.0000000000
1717675150049,487.0000000000,485.0000000000,507.0000000000,111.0000000000,38.0000000000,0.0000000000
1717675150050,483.0000000000,480.0000000000,503.0000000000,110.0000000000,37.0000000000,0.0000000000
1717675150076,480.0000000000,476.0000000000,497.0000000000,109.0000000000,37.0000000000,0.0000000000
1717675150077,476.0000000000,472.0000000000,493.0000000000,108.0000000000,37.0000000000,0.0000000000
1717675150077,472.0000000000,468.0000000000,487.0000000000,108.0000000000,36.0000000000,0.0000000000
1717675150078,467.0000000000,463.0000000000,539.0000000000,107.0000000000,36.0000000000,0.0000000000
1717675150078,463.0000000000,460.0000000000,532.0000000000,107.0000000000,36.0000000000,0.0000000000
1717675150078,460.0000000000,455.0000000000,527.0000000000,105.0000000000,36.0000000000,0.0000000000
1717675150079,455.0000000000,453.0000000000,575.0000000000,105.0000000000,35.0000000000,0.0000000000
1717675150079,452.0000000000,449.0000000000,568.0000000000,103.0000000000,35.0000000000,0.0000000000
1717675150079,448.0000000000,445.0000000000,563.0000000000,103.0000000000,35.0000000000,0.0000000000
1717675150079,445.0000000000,441.0000000000,558.0000000000,103.0000000000,35.0000000000,0.0000000000
1717675150080,441.0000000000,440.0000000000,551.0000000000,103.0000000000,35.0000000000,0.0000000000
1717675150080,438.0000000000,435.0000000000,547.0000000000,102.0000000000,34.0000000000,0.0000000000
1717675150080,435.0000000000,432.0000000000,543.0000000000,101.0000000000,34.0000000000,0.0000000000
1717675150081,431.0000000000,428.0000000000,537.0000000000,100.0000000000,33.0000000000,0.0000000000
1717675150081,428.0000000000,425.0000000000,532.0000000000,99.0000000000,33.0000000000,0.0000000000
1717675150081,424.0000000000,422.0000000000,527.0000000000,99.0000000000,33.0000000000,0.0000000000
1717675150082,422.0000000000,419.0000000000,524.0000000000,99.0000000000,33.0000000000,0.0000000000
1717675150082,419.0000000000,415.0000000000,519.0000000000,98.0000000000,33.0000000000,0.0000000000
1717675150105,434.0000000000,413.0000000000,515.0000000000,97.0000000000,33.0000000000,0.0000000000
1717675150105,588.0000000000,410.0000000000,511.0000000000,97.0000000000,33.0000000000,0.0000000000
1717675150106,580.0000000000,407.0000000000,557.0000000000,96.0000000000,32.0000000000,0.0000000000
1717675150106,574.0000000000,404.0000000000,551.0000000000,96.0000000000,32.0000000000,0.0000000000
1717675150106,568.0000000000,401.0000000000,545.0000000000,96.0000000000,31.0000000000,0.0000000000
1717675150107,562.0000000000,398.0000000000,541.0000000000,95.0000000000,31.0000000000,0.0000000000
1717675150107,557.0000000000,396.0000000000,536.0000000000,95.0000000000,31.0000000000,0.0000000000
1717675150107,551.0000000000,392.0000000000,531.0000000000,94.0000000000,31.0000000000,0.0000000000
1717675150107,547.0000000000,391.0000000000,527.0000000000,93.0000000000,31.0000000000,0.0000000000
1717675150108,542.0000000000,387.0000000000,523.0000000000,93.0000000000,31.0000000000,0.0000000000
1717675150108,537.0000000000,384.0000000000,518.0000000000,92.0000000000,31.0000000000,0.0000000000
1717675150108,532.0000000000,383.0000000000,513.0000000000,92.0000000000,31.0000000000,0.0000000000
1717675150108,527.0000000000,380.0000000000,510.0000000000,158.0000000000,31.0000000000,0.0000000000
1717675150125,524.0000000000,428.0000000000,505.0000000000,192.0000000000,31.0000000000,0.0000000000
1717675150125,519.0000000000,423.0000000000,500.0000000000,190.0000000000,30.0000000000,0.0000000000
1717675150125,513.0000000000,420.0000000000,496.0000000000,188.0000000000,30.0000000000,0.0000000000
1717675150125,508.0000000000,416.0000000000,493.0000000000,187.0000000000,30.0000000000,0.0000000000
1717675150125,504.0000000000,413.0000000000,488.0000000000,185.0000000000,30.0000000000,0.0000000000
1717675150125,518.0000000000,410.0000000000,484.0000000000,184.0000000000,30.0000000000,0.0000000000
1717675150126,512.0000000000,407.0000000000,480.0000000000,183.0000000000,29.0000000000,0.0000000000
1717675150126,508.0000000000,403.0000000000,477.0000000000,181.0000000000,29.0000000000,0.0000000000
1717675150126,503.0000000000,399.0000000000,473.0000000000,180.0000000000,29.0000000000,0.0000000000
1717675150140,499.0000000000,398.0000000000,470.0000000000,179.0000000000,30.0000000000,0.0000000000
1717675150141,494.0000000000,395.0000000000,466.0000000000,178.0000000000,57.0000000000,0.0000000000
1717675150141,489.0000000000,391.0000000000,463.0000000000,176.0000000000,56.0000000000,0.0000000000
1717675150141,486.0000000000,387.0000000000,459.0000000000,175.0000000000,56.0000000000,0.0000000000
1717675150141,481.0000000000,385.0000000000,455.0000000000,174.0000000000,56.0000000000,0.0000000000
1717675150142,478.0000000000,383.0000000000,451.0000000000,173.0000000000,55.0000000000,0.0000000000
1717675150142,473.0000000000,380.0000000000,449.0000000000,172.0000000000,55.0000000000,0.0000000000
1717675150142,470.0000000000,376.0000000000,446.0000000000,171.0000000000,55.0000000000,0.0000000000
1717675150142,466.0000000000,375.0000000000,477.0000000000,169.0000000000,54.0000000000,0.0000000000
1717675150161,463.0000000000,422.0000000000,515.0000000000,168.0000000000,53.0000000000,0.0000000000
1717675150162,459.0000000000,417.0000000000,512.0000000000,167.0000000000,54.0000000000,0.0000000000
1717675150162,455.0000000000,414.0000000000,507.0000000000,167.0000000000,53.0000000000,0.0000000000
1717675150162,451.0000000000,412.0000000000,502.0000000000,166.0000000000,52.0000000000,0.0000000000
1717675150162,448.0000000000,408.0000000000,497.0000000000,164.0000000000,52.0000000000,0.0000000000
1717675150162,444.0000000000,404.0000000000,494.0000000000,163.0000000000,52.0000000000,0.0000000000
1717675150162,441.0000000000,400.0000000000,489.0000000000,162.0000000000,51.0000000000,0.0000000000
1717675150163,438.0000000000,398.0000000000,484.0000000000,161.0000000000,51.0000000000,0.0000000000
1717675150163,433.0000000000,395.0000000000,480.0000000000,159.0000000000,51.0000000000,0.0000000000
1717675150163,431.0000000000,391.0000000000,477.0000000000,159.0000000000,51.0000000000,0.0000000000
1717675150163,428.0000000000,388.0000000000,473.0000000000,158.0000000000,51.0000000000,0.0000000000
1717675150181,423.0000000000,385.0000000000,469.0000000000,158.0000000000,50.0000000000,0.0000000000
1717675150181,422.0000000000,383.0000000000,465.0000000000,156.0000000000,56.0000000000,0.0000000000
1717675150182,418.0000000000,380.0000000000,461.0000000000,156.0000000000,59.0000000000,0.0000000000
1717675150182,415.0000000000,376.0000000000,458.0000000000,154.0000000000,57.0000000000,0.0000000000
1717675150182,412.0000000000,374.0000000000,454.0000000000,153.0000000000,57.0000000000,0.0000000000
1717675150182,408.0000000000,371.0000000000,451.0000000000,152.0000000000,57.0000000000,0.0000000000
1717675150182,406.0000000000,369.0000000000,447.0000000000,152.0000000000,57.0000000000,0.0000000000
1717675150182,403.0000000000,366.0000000000,462.0000000000,151.0000000000,56.0000000000,0.0000000000
1717675150183,399.0000000000,364.0000000000,457.0000000000,150.0000000000,56.0000000000,0.0000000000
1717675150183,396.0000000000,361.0000000000,454.0000000000,149.0000000000,56.0000000000,0.0000000000
1717675150183,484.0000000000,359.0000000000,450.0000000000,147.0000000000,56.0000000000,0.0000000000
1717675150199,527.0000000000,356.0000000000,463.0000000000,147.0000000000,56.0000000000,0.0000000000
1717675150199,521.0000000000,354.0000000000,459.0000000000,145.0000000000,55.0000000000,0.0000000000
1717675150199,516.0000000000,352.0000000000,454.0000000000,145.0000000000,54.0000000000,0.0000000000
1717675150200,511.0000000000,350.0000000000,450.0000000000,144.0000000000,54.0000000000,0.0000000000
1717675150200,507.0000000000,347.0000000000,448.0000000000,143.0000000000,54.0000000000,0.0000000000
1717675150200,502.0000000000,344.0000000000,444.0000000000,143.0000000000,53.0000000000,0.0000000000
1717675150200,497.0000000000,343.0000000000,440.0000000000,141.0000000000,53.0000000000,0.0000000000
1717675150200,492.0000000000,340.0000000000,436.0000000000,141.0000000000,52.0000000000,0.0000000000
1717675150200,487.0000000000,338.0000000000,433.0000000000,140.0000000000,52.0000000000,0.0000000000
1717675150201,483.0000000000,335.0000000000,430.0000000000,139.0000000000,51.0000000000,0.0000000000
1717675150201,480.0000000000,335.0000000000,427.0000000000,138.0000000000,51.0000000000,0.0000000000
1717675150219,476.0000000000,332.0000000000,423.0000000000,137.0000000000,51.0000000000,0.0000000000
1717675150221,472.0000000000,334.0000000000,421.0000000000,135.0000000000,51.0000000000,0.0000000000
1717675150222,467.0000000000,425.0000000000,417.0000000000,135.0000000000,60.0000000000,0.0000000000
1717675150223,463.0000000000,422.0000000000,415.0000000000,135.0000000000,85.0000000000,0.0000000000
1717675150223,460.0000000000,417.0000000000,412.0000000000,134.0000000000,84.0000000000,0.0000000000
1717675150224,455.0000000000,441.0000000000,409.0000000000,134.0000000000,84.0000000000,0.0000000000
1717675150224,452.0000000000,437.0000000000,406.0000000000,146.0000000000,83.0000000000,0.0000000000
1717675150224,448.0000000000,433.0000000000,403.0000000000,169.0000000000,82.0000000000,0.0000000000
1717675150224,444.0000000000,430.0000000000,399.0000000000,167.0000000000,81.0000000000,0.0000000000
1717675150225,441.0000000000,504.0000000000,397.0000000000,167.0000000000,81.0000000000,0.0000000000
1717675150225,438.0000000000,499.0000000000,395.0000000000,166.0000000000,81.0000000000,0.0000000000
1717675150241,435.0000000000,494.0000000000,391.0000000000,163.0000000000,80.0000000000,0.0000000000
1717675150242,431.0000000000,491.0000000000,390.0000000000,163.0000000000,79.0000000000,0.0000000000
1717675150243,428.0000000000,486.0000000000,386.0000000000,162.0000000000,79.0000000000,0.0000000000
1717675150243,423.0000000000,481.0000000000,384.0000000000,160.0000000000,79.0000000000,0.0000000000
1717675150243,420.0000000000,477.0000000000,382.0000000000,159.0000000000,78.0000000000,0.0000000000
1717675150244,417.0000000000,473.0000000000,379.0000000000,159.0000000000,77.0000000000,0.0000000000
1717675150244,415.0000000000,470.0000000000,462.0000000000,158.0000000000,77.0000000000,0.0000000000
1717675150244,411.0000000000,465.0000000000,508.0000000000,156.0000000000,76.0000000000,0.0000000000
1717675150244,408.0000000000,460.0000000000,503.0000000000,156.0000000000,76.0000000000,0.0000000000
1717675150245,404.0000000000,457.0000000000,498.0000000000,155.0000000000,75.0000000000,0.0000000000
1717675150245,401.0000000000,454.0000000000,494.0000000000,154.0000000000,75.0000000000,0.0000000000
1717675150269,399.0000000000,450.0000000000,489.0000000000,153.0000000000,75.0000000000,0.0000000000
1717675150269,396.0000000000,447.0000000000,486.0000000000,152.0000000000,73.0000000000,0.0000000000
1717675150270,393.0000000000,444.0000000000,481.0000000000,151.0000000000,73.0000000000,0.0000000000
1717675150270,390.0000000000,440.0000000000,476.0000000000,151.0000000000,72.0000000000,0.0000000000
1717675150270,387.0000000000,435.0000000000,473.0000000000,149.0000000000,72.0000000000,0.0000000000
1717675150270,403.0000000000,432.0000000000,470.0000000000,147.0000000000,71.0000000000,0.0000000000
1717675150270,608.0000000000,431.0000000000,500.0000000000,147.0000000000,71.0000000000,0.0000000000
1717675150270,604.0000000000,427.0000000000,531.0000000000,146.0000000000,71.0000000000,0.0000000000
1717675150270,596.0000000000,423.0000000000,527.0000000000,145.0000000000,71.0000000000,0.0000000000
1717675150270,590.0000000000,419.0000000000,523.0000000000,144.0000000000,71.0000000000,0.0000000000
1717675150270,583.0000000000,416.0000000000,518.0000000000,143.0000000000,70.0000000000,0.0000000000
1717675150271,578.0000000000,414.0000000000,512.0000000000,143.0000000000,70.0000000000,0.0000000000
1717675150271,572.0000000000,411.0000000000,508.0000000000,142.0000000000,70.0000000000,0.0000000000
1717675150271,568.0000000000,408.0000000000,600.0000000000,140.0000000000,68.0000000000,0.0000000000
1717675150271,561.0000000000,404.0000000000,591.0000000000,140.0000000000,68.0000000000,0.0000000000
1717675150291,556.0000000000,402.0000000000,585.0000000000,140.0000000000,67.0000000000,0.0000000000
1717675150292,551.0000000000,399.0000000000,579.0000000000,139.0000000000,67.0000000000,0.0000000000
1717675150292,545.0000000000,396.0000000000,575.0000000000,137.0000000000,67.0000000000,0.0000000000
1717675150292,540.0000000000,393.0000000000,568.0000000000,135.0000000000,67.0000000000,0.0000000000
1717675150292,536.0000000000,391.0000000000,563.0000000000,135.0000000000,67.0000000000,0.0000000000
1717675150292,530.0000000000,387.0000000000,558.0000000000,135.0000000000,65.0000000000,0.0000000000
1717675150292,526.0000000000,385.0000000000,553.0000000000,134.0000000000,65.0000000000,0.0000000000
1717675150293,521.0000000000,382.0000000000,548.0000000000,175.0000000000,65.0000000000,0.0000000000
1717675150293,516.0000000000,380.0000000000,543.0000000000,173.0000000000,64.0000000000,0.0000000000
1717675150293,512.0000000000,377.0000000000,537.0000000000,172.0000000000,63.0000000000,0.0000000000
1717675150293,508.0000000000,374.0000000000,534.0000000000,171.0000000000,63.0000000000,0.0000000000
1717675150309,504.0000000000,371.0000000000,540.0000000000,169.0000000000,63.0000000000,0.0000000000
1717675150311,499.0000000000,369.0000000000,535.0000000000,167.0000000000,63.0000000000,0.0000000000
1717675150311,494.0000000000,367.0000000000,529.0000000000,167.0000000000,63.0000000000,0.0000000000
1717675150311,490.0000000000,364.0000000000,526.0000000000,166.0000000000,62.0000000000,0.0000000000
1717675150312,486.0000000000,361.0000000000,521.0000000000,164.0000000000,62.0000000000,0.0000000000
1717675150312,483.0000000000,359.0000000000,516.0000000000,163.0000000000,62.0000000000,0.0000000000
1717675150312,478.0000000000,356.0000000000,512.0000000000,162.0000000000,61.0000000000,0.0000000000
1717675150312,475.0000000000,355.0000000000,508.0000000000,161.0000000000,61.0000000000,0.0000000000
1717675150313,472.0000000000,352.0000000000,583.0000000000,159.0000000000,60.0000000000,0.0000000000
1717675150313,467.0000000000,350.0000000000,583.0000000000,159.0000000000,60.0000000000,0.0000000000
1717675150313,463.0000000000,348.0000000000,577.0000000000,158.0000000000,60.0000000000,0.0000000000
1717675150334,460.0000000000,345.0000000000,572.0000000000,157.0000000000,59.0000000000,0.0000000000
1717675150335,455.0000000000,343.0000000000,567.0000000000,156.0000000000,59.0000000000,0.0000000000
1717675150335,451.0000000000,340.0000000000,561.0000000000,156.0000000000,58.0000000000,0.0000000000
1717675150335,448.0000000000,339.0000000000,556.0000000000,154.0000000000,59.0000000000,0.0000000000
1717675150335,445.0000000000,336.0000000000,651.0000000000,153.0000000000,58.0000000000,0.0000000000
1717675150336,441.0000000000,359.0000000000,643.0000000000,152.0000000000,57.0000000000,0.0000000000
1717675150336,439.0000000000,356.0000000000,636.0000000000,152.0000000000,57.0000000000,0.0000000000
1717675150336,435.0000000000,354.0000000000,630.0000000000,151.0000000000,62.0000000000,0.0000000000
1717675150336,432.0000000000,351.0000000000,622.0000000000,150.0000000000,62.0000000000,0.0000000000
1717675150336,428.0000000000,348.0000000000,617.0000000000,148.0000000000,62.0000000000,0.0000000000
1717675150336,425.0000000000,345.0000000000,611.0000000000,147.0000000000,61.0000000000,0.0000000000
1717675150337,422.0000000000,344.0000000000,604.0000000000,147.0000000000,61.0000000000,0.0000000000
1717675150337,419.0000000000,339.0000000000,599.0000000000,145.0000000000,60.0000000000,0.0000000000
1717675150360,415.0000000000,337.0000000000,594.0000000000,145.0000000000,60.0000000000,0.0000000000
1717675150361,412.0000000000,335.0000000000,588.0000000000,143.0000000000,59.0000000000,0.0000000000
1717675150361,409.0000000000,333.0000000000,639.0000000000,143.0000000000,60.0000000000,0.0000000000
1717675150361,407.0000000000,331.0000000000,676.0000000000,143.0000000000,59.0000000000,0.0000000000
1717675150361,403.0000000000,327.0000000000,670.0000000000,159.0000000000,59.0000000000,0.0000000000
1717675150361,400.0000000000,376.0000000000,663.0000000000,159.0000000000,58.0000000000,0.0000000000
1717675150361,398.0000000000,374.0000000000,655.0000000000,158.0000000000,57.0000000000,0.0000000000
1717675150361,395.0000000000,371.0000000000,647.0000000000,157.0000000000,57.0000000000,0.0000000000
1717675150362,391.0000000000,368.0000000000,642.0000000000,156.0000000000,56.0000000000,0.0000000000
1717675150362,388.0000000000,364.0000000000,636.0000000000,155.0000000000,56.0000000000,0.0000000000
1717675150362,387.0000000000,407.0000000000,664.0000000000,153.0000000000,56.0000000000,0.0000000000
1717675150362,384.0000000000,412.0000000000,739.0000000000,152.0000000000,56.0000000000,0.0000000000
1717675150363,381.0000000000,408.0000000000,732.0000000000,152.0000000000,56.0000000000,0.0000000000
1717675150380,379.0000000000,403.0000000000,723.0000000000,151.0000000000,55.0000000000,0.0000000000
1717675150381,376.0000000000,401.0000000000,715.0000000000,150.0000000000,55.0000000000,0.0000000000
1717675150381,373.0000000000,398.0000000000,707.0000000000,148.0000000000,54.0000000000,0.0000000000
1717675150381,371.0000000000,395.0000000000,700.0000000000,147.0000000000,54.0000000000,0.0000000000
1717675150381,368.0000000000,391.0000000000,692.0000000000,147.0000000000,54.0000000000,0.0000000000
1717675150381,366.0000000000,387.0000000000,685.0000000000,146.0000000000,54.0000000000,0.0000000000
1717675150381,363.0000000000,385.0000000000,678.0000000000,144.0000000000,53.0000000000,0.0000000000
1717675150381,359.0000000000,383.0000000000,670.0000000000,143.0000000000,53.0000000000,0.0000000000
1717675150381,358.0000000000,379.0000000000,664.0000000000,143.0000000000,52.0000000000,0.0000000000
1717675150382,355.0000000000,376.0000000000,658.0000000000,142.0000000000,52.0000000000,0.0000000000
1717675150382,353.0000000000,374.0000000000,651.0000000000,141.0000000000,51.0000000000,0.0000000000
1717675150402,352.0000000000,371.0000000000,644.0000000000,140.0000000000,51.0000000000,0.0000000000
1717675150403,349.0000000000,368.0000000000,639.0000000000,140.0000000000,51.0000000000,0.0000000000
1717675150403,347.0000000000,366.0000000000,632.0000000000,139.0000000000,51.0000000000,0.0000000000
1717675150403,344.0000000000,363.0000000000,626.0000000000,137.0000000000,51.0000000000,0.0000000000
1717675150404,343.0000000000,359.0000000000,620.0000000000,137.0000000000,50.0000000000,0.0000000000
1717675150404,339.0000000000,358.0000000000,615.0000000000,135.0000000000,50.0000000000,0.0000000000
1717675150404,337.0000000000,355.0000000000,609.0000000000,135.0000000000,50.0000000000,0.0000000000
1717675150404,335.0000000000,353.0000000000,604.0000000000,135.0000000000,50.0000000000,0.0000000000
1717675150404,334.0000000000,350.0000000000,598.0000000000,134.0000000000,49.0000000000,0.0000000000
1717675150404,332.0000000000,348.0000000000,593.0000000000,132.0000000000,49.0000000000,0.0000000000
1717675150404,329.0000000000,345.0000000000,588.0000000000,132.0000000000,49.0000000000,0.0000000000
1717675150425,327.0000000000,344.0000000000,583.0000000000,131.0000000000,48.0000000000,0.0000000000
1717675150426,325.0000000000,340.0000000000,577.0000000000,131.0000000000,48.0000000000,0.0000000000
1717675150426,323.0000000000,338.0000000000,573.0000000000,130.0000000000,47.0000000000,0.0000000000
1717675150426,321.0000000000,345.0000000000,568.0000000000,129.0000000000,48.0000000000,0.0000000000
1717675150426,319.0000000000,344.0000000000,563.0000000000,128.0000000000,47.0000000000,0.0000000000
1717675150427,317.0000000000,340.0000000000,558.0000000000,127.0000000000,47.0000000000,0.0000000000
1717675150427,315.0000000000,338.0000000000,553.0000000000,127.0000000000,47.0000000000,0.0000000000
1717675150427,313.0000000000,335.0000000000,549.0000000000,126.0000000000,46.0000000000,0.0000000000
1717675150427,312.0000000000,369.0000000000,622.0000000000,126.0000000000,46.0000000000,0.0000000000
1717675150427,310.0000000000,366.0000000000,661.0000000000,124.0000000000,46.0000000000,0.0000000000
1717675150428,307.0000000000,363.0000000000,655.0000000000,124.0000000000,46.0000000000,0.0000000000
1717675150428,305.0000000000,359.0000000000,647.0000000000,123.0000000000,45.0000000000,0.0000000000
