timestamp,Channel 1,Channel 2,Channel 3,Channel 4,Channel 5,Channel 6
1717675094791,11.0000000000,0.0000000000,0.0000000000,91.0000000000,25.0000000000,4.0000000000
1717675094792,11.0000000000,0.0000000000,1.0000000000,90.0000000000,25.0000000000,6.0000000000
1717675094792,11.0000000000,0.0000000000,0.0000000000,89.0000000000,25.0000000000,5.0000000000
1717675094792,10.0000000000,0.0000000000,0.0000000000,88.0000000000,25.0000000000,6.0000000000
1717675094793,11.0000000000,0.0000000000,1.0000000000,89.0000000000,25.0000000000,5.0000000000
1717675094793,11.0000000000,0.0000000000,1.0000000000,88.0000000000,25.0000000000,5.0000000000
1717675094793,11.0000000000,0.0000000000,0.0000000000,88.0000000000,24.0000000000,5.0000000000
1717675094793,11.0000000000,0.0000000000,0.0000000000,88.0000000000,24.0000000000,5.0000000000
1717675094793,11.0000000000,0.0000000000,1.0000000000,88.0000000000,25.0000000000,5.0000000000
1717675094793,11.0000000000,0.0000000000,0.0000000000,88.0000000000,25.0000000000,5.0000000000
1717675094793,11.0000000000,0.0000000000,0.0000000000,87.0000000000,24.0000000000,5.0000000000
1717675094793,11.0000000000,0.0000000000,0.0000000000,87.0000000000,24.0000000000,5.0000000000
1717675094793,11.0000000000,0.0000000000,0.0000000000,86.0000000000,24.0000000000,4.0000000000
1717675094794,11.0000000000,0.0000000000,0.0000000000,86.0000000000,24.0000000000,5.0000000000
1717675094794,11.0000000000,0.0000000000,1.0000000000,85.0000000000,24.0000000000,4.0000000000
1717675094794,10.0000000000,0.0000000000,0.0000000000,85.0000000000,24.0000000000,4.0000000000
1717675094794,11.0000000000,0.0000000000,1.0000000000,84.0000000000,24.0000000000,4.0000000000
1717675094794,11.0000000000,0.0000000000,0.0000000000,83.0000000000,24.0000000000,4.0000000000
1717675094794,11.0000000000,0.0000000000,0.0000000000,83.0000000000,24.0000000000,5.0000000000
1717675094794,11.0000000000,0.0000000000,0.0000000000,83.0000000000,24.0000000000,4.0000000000
1717675094794,11.0000000000,0.0000000000,1.0000000000,83.0000000000,24.0000000000,4.0000000000
1717675094794,10.0000000000,0.0000000000,1.0000000000,83.0000000000,24.0000000000,4.0000000000
1717675094794,11.0000000000,0.0000000000,1.0000000000,83.0000000000,24.0000000000,3.0000000000
1717675094794,11.0000000000,0.0000000000,0.0000000000,82.0000000000,23.0000000000,4.0000000000
1717675094795,11.0000000000,0.0000000000,0.0000000000,82.0000000000,23.0000000000,4.0000000000
1717675094795,10.0000000000,0.0000000000,0.0000000000,81.0000000000,23.0000000000,4.0000000000
1717675094795,10.0000000000,0.0000000000,0.0000000000,81.0000000000,23.0000000000,4.0000000000
1717675094810,10.0000000000,0.0000000000,0.0000000000,81.0000000000,22.0000000000,4.0000000000
1717675094811,9.0000000000,0.0000000000,0.0000000000,80.0000000000,23.0000000000,4.0000000000
1717675094811,10.0000000000,0.0000000000,0.0000000000,79.0000000000,22.0000000000,4.0000000000
1717675094811,9.0000000000,0.0000000000,0.0000000000,79.0000000000,22.0000000000,4.0000000000
1717675094811,9.0000000000,0.0000000000,0.0000000000,79.0000000000,23.0000000000,4.0000000000
1717675094811,9.0000000000,0.0000000000,0.0000000000,79.0000000000,22.0000000000,4.0000000000
1717675094811,9.0000000000,0.0000000000,0.0000000000,79.0000000000,22.0000000000,4.0000000000
1717675094811,10.0000000000,0.0000000000,0.0000000000,78.0000000000,22.0000000000,4.0000000000
1717675094812,9.0000000000,0.0000000000,0.0000000000,78.0000000000,22.0000000000,3.0000000000
1717675094812,10.0000000000,0.0000000000,0.0000000000,78.0000000000,22.0000000000,4.0000000000
1717675094812,11.0000000000,0.0000000000,0.0000000000,78.0000000000,22.0000000000,3.0000000000
1717675094812,10.0000000000,0.0000000000,0.0000000000,77.0000000000,22.0000000000,4.0000000000
1717675094812,9.0000000000,0.0000000000,0.0000000000,77.0000000000,22.0000000000,4.0000000000
1717675094812,10.0000000000,0.0000000000,1.0000000000,77.0000000000,21.0000000000,3.0000000000
1717675094812,10.0000000000,0.0000000000,0.0000000000,76.0000000000,21.0000000000,3.0000000000
1717675094812,9.0000000000,0.0000000000,0.0000000000,76.0000000000,21.0000000000,3.0000000000
1717675094827,9.0000000000,0.0000000000,0.0000000000,76.0000000000,22.0000000000,3.0000000000
1717675094828,9.0000000000,0.0000000000,0.0000000000,76.0000000000,21.0000000000,4.0000000000
1717675094828,10.0000000000,0.0000000000,0.0000000000,75.0000000000,21.0000000000,4.0000000000
1717675094828,9.0000000000,0.0000000000,0.0000000000,75.0000000000,21.0000000000,3.0000000000
1717675094829,9.0000000000,0.0000000000,0.0000000000,75.0000000000,21.0000000000,4.0000000000
1717675094829,9.0000000000,0.0000000000,1.0000000000,75.0000000000,20.0000000000,4.0000000000
1717675094829,10.0000000000,0.0000000000,0.0000000000,75.0000000000,21.0000000000,3.0000000000
1717675094829,10.0000000000,0.0000000000,0.0000000000,73.0000000000,20.0000000000,3.0000000000
1717675094829,10.0000000000,0.0000000000,0.0000000000,73.0000000000,20.0000000000,4.0000000000
1717675094829,10.0000000000,0.0000000000,0.0000000000,73.0000000000,20.0000000000,3.0000000000
1717675094830,10.0000000000,0.0000000000,0.0000000000,73.0000000000,20.0000000000,3.0000000000
1717675094830,9.0000000000,0.0000000000,0.0000000000,71.0000000000,20.0000000000,3.0000000000
1717675094856,9.0000000000,0.0000000000,0.0000000000,72.0000000000,22.0000000000,3.0000000000
1717675094857,9.0000000000,0.0000000000,0.0000000000,71.0000000000,21.0000000000,3.0000000000
1717675094857,9.0000000000,0.0000000000,0.0000000000,123.0000000000,22.0000000000,3.0000000000
1717675094857,9.0000000000,0.0000000000,0.0000000000,135.0000000000,21.0000000000,3.0000000000
1717675094857,9.0000000000,0.0000000000,0.0000000000,135.0000000000,21.0000000000,3.0000000000
1717675094857,9.0000000000,0.0000000000,0.0000000000,134.0000000000,21.0000000000,3.0000000000
1717675094857,9.0000000000,0.0000000000,0.0000000000,134.0000000000,21.0000000000,3.0000000000
1717675094857,9.0000000000,0.0000000000,0.0000000000,132.0000000000,21.0000000000,3.0000000000
1717675094857,9.0000000000,0.0000000000,0.0000000000,132.0000000000,20.0000000000,3.0000000000
1717675094857,9.0000000000,0.0000000000,0.0000000000,131.0000000000,20.0000000000,3.0000000000
1717675094858,9.0000000000,0.0000000000,0.0000000000,131.0000000000,20.0000000000,3.0000000000
1717675094858,10.0000000000,0.0000000000,0.0000000000,130.0000000000,20.0000000000,3.0000000000
1717675094858,9.0000000000,0.0000000000,0.0000000000,129.0000000000,20.0000000000,3.0000000000
1717675094858,10.0000000000,0.0000000000,0.0000000000,129.0000000000,19.0000000000,3.0000000000
1717675094858,9.0000000000,0.0000000000,0.0000000000,127.0000000000,19.0000000000,3.0000000000
1717675094858,9.0000000000,0.0000000000,0.0000000000,127.0000000000,19.0000000000,3.0000000000
1717675094858,9.0000000000,0.0000000000,0.0000000000,127.0000000000,20.0000000000,3.0000000000
1717675094858,9.0000000000,0.0000000000,0.0000000000,126.0000000000,20.0000000000,3.0000000000
1717675094858,9.0000000000,0.0000000000,0.0000000000,125.0000000000,19.0000000000,3.0000000000
1717675094858,9.0000000000,0.0000000000,0.0000000000,125.0000000000,19.0000000000,3.0000000000
1717675094859,9.0000000000,0.0000000000,0.0000000000,124.0000000000,19.0000000000,3.0000000000
1717675094874,9.0000000000,0.0000000000,0.0000000000,124.0000000000,19.0000000000,3.0000000000
1717675094876,9.0000000000,0.0000000000,0.0000000000,123.0000000000,19.0000000000,3.0000000000
1717675094876,9.0000000000,0.0000000000,0.0000000000,123.0000000000,19.0000000000,3.0000000000
1717675094876,9.0000000000,0.0000000000,0.0000000000,122.0000000000,19.0000000000,3.0000000000
1717675094877,9.0000000000,0.0000000000,0.0000000000,121.0000000000,19.0000000000,3.0000000000
1717675094877,9.0000000000,0.0000000000,0.0000000000,121.0000000000,19.0000000000,3.0000000000
1717675094877,9.0000000000,0.0000000000,0.0000000000,120.0000000000,19.0000000000,3.0000000000
1717675094877,10.0000000000,0.0000000000,0.0000000000,120.0000000000,19.0000000000,2.0000000000
1717675094878,9.0000000000,0.0000000000,0.0000000000,119.0000000000,19.0000000000,3.0000000000
1717675094878,9.0000000000,0.0000000000,0.0000000000,118.0000000000,18.0000000000,3.0000000000
1717675094878,9.0000000000,0.0000000000,0.0000000000,119.0000000000,20.0000000000,3.0000000000
1717675094879,9.0000000000,0.0000000000,0.0000000000,117.0000000000,22.0000000000,3.0000000000
1717675094879,9.0000000000,0.0000000000,0.0000000000,117.0000000000,22.0000000000,2.0000000000
1717675094879,9.0000000000,0.0000000000,0.0000000000,115.0000000000,23.0000000000,3.0000000000
1717675094879,9.0000000000,0.0000000000,0.0000000000,115.0000000000,22.0000000000,3.0000000000
1717675094898,9.0000000000,0.0000000000,0.0000000000,115.0000000000,22.0000000000,3.0000000000
1717675094899,9.0000000000,0.0000000000,0.0000000000,115.0000000000,22.0000000000,3.0000000000
1717675094900,9.0000000000,0.0000000000,0.0000000000,114.0000000000,22.0000000000,3.0000000000
1717675094900,9.0000000000,0.0000000000,0.0000000000,113.0000000000,22.0000000000,3.0000000000
1717675094900,10.0000000000,0.0000000000,0.0000000000,113.0000000000,22.0000000000,2.0000000000
1717675094900,9.0000000000,0.0000000000,0.0000000000,112.0000000000,22.0000000000,3.0000000000
1717675094900,10.0000000000,0.0000000000,0.0000000000,112.0000000000,21.0000000000,2.0000000000
1717675094901,9.0000000000,0.0000000000,0.0000000000,112.0000000000,21.0000000000,3.0000000000
1717675094901,9.0000000000,0.0000000000,0.0000000000,111.0000000000,21.0000000000,3.0000000000
1717675094901,9.0000000000,0.0000000000,0.0000000000,110.0000000000,25.0000000000,3.0000000000
1717675094902,9.0000000000,0.0000000000,0.0000000000,110.0000000000,31.0000000000,3.0000000000
1717675094902,9.0000000000,0.0000000000,0.0000000000,110.0000000000,31.0000000000,2.0000000000
1717675094904,9.0000000000,0.0000000000,0.0000000000,109.0000000000,31.0000000000,2.0000000000
1717675094904,9.0000000000,0.0000000000,0.0000000000,109.0000000000,31.0000000000,2.0000000000
1717675094904,9.0000000000,0.0000000000,0.0000000000,108.0000000000,31.0000000000,2.0000000000
1717675094905,9.0000000000,0.0000000000,0.0000000000,108.0000000000,31.0000000000,2.0000000000
1717675094905,9.0000000000,0.0000000000,0.0000000000,107.0000000000,31.0000000000,3.0000000000
1717675094905,9.0000000000,0.0000000000,0.0000000000,107.0000000000,31.0000000000,2.0000000000
1717675094922,9.0000000000,0.0000000000,0.0000000000,107.0000000000,31.0000000000,3.0000000000
1717675094922,9.0000000000,0.0000000000,0.0000000000,105.0000000000,30.0000000000,2.0000000000
1717675094923,9.0000000000,0.0000000000,0.0000000000,105.0000000000,30.0000000000,2.0000000000
1717675094923,9.0000000000,0.0000000000,0.0000000000,104.0000000000,30.0000000000,2.0000000000
1717675094923,9.0000000000,0.0000000000,0.0000000000,111.0000000000,30.0000000000,2.0000000000
1717675094923,9.0000000000,0.0000000000,0.0000000000,110.0000000000,30.0000000000,2.0000000000
1717675094923,9.0000000000,0.0000000000,0.0000000000,110.0000000000,30.0000000000,2.0000000000
1717675094923,9.0000000000,0.0000000000,0.0000000000,109.0000000000,30.0000000000,2.0000000000
1717675094923,9.0000000000,0.0000000000,0.0000000000,108.0000000000,30.0000000000,3.0000000000
1717675094924,9.0000000000,0.0000000000,0.0000000000,108.0000000000,28.0000000000,2.0000000000
1717675094924,9.0000000000,0.0000000000,0.0000000000,108.0000000000,29.0000000000,2.0000000000
1717675094924,8.0000000000,0.0000000000,1.0000000000,107.0000000000,29.0000000000,2.0000000000
1717675094924,9.0000000000,0.0000000000,0.0000000000,106.0000000000,28.0000000000,1.0000000000
1717675094924,9.0000000000,0.0000000000,0.0000000000,105.0000000000,28.0000000000,2.0000000000
1717675094924,9.0000000000,0.0000000000,0.0000000000,105.0000000000,28.0000000000,2.0000000000
1717675094944,9.0000000000,0.0000000000,0.0000000000,104.0000000000,28.0000000000,2.0000000000
1717675094945,9.0000000000,0.0000000000,0.0000000000,104.0000000000,28.0000000000,2.0000000000
1717675094945,9.0000000000,0.0000000000,0.0000000000,103.0000000000,28.0000000000,2.0000000000
1717675094946,9.0000000000,0.0000000000,0.0000000000,103.0000000000,28.0000000000,2.0000000000
1717675094946,9.0000000000,0.0000000000,0.0000000000,103.0000000000,28.0000000000,2.0000000000
1717675094946,8.0000000000,0.0000000000,0.0000000000,103.0000000000,27.0000000000,2.0000000000
1717675094946,9.0000000000,0.0000000000,0.0000000000,102.0000000000,28.0000000000,1.0000000000
1717675094947,8.0000000000,0.0000000000,1.0000000000,102.0000000000,27.0000000000,2.0000000000
1717675094947,8.0000000000,0.0000000000,0.0000000000,101.0000000000,27.0000000000,1.0000000000
1717675094947,8.0000000000,0.0000000000,0.0000000000,100.0000000000,27.0000000000,1.0000000000
1717675094947,8.0000000000,0.0000000000,0.0000000000,100.0000000000,27.0000000000,2.0000000000
1717675094948,7.0000000000,0.0000000000,0.0000000000,99.0000000000,26.0000000000,2.0000000000
1717675094948,7.0000000000,0.0000000000,0.0000000000,99.0000000000,27.0000000000,2.0000000000
1717675094948,7.0000000000,0.0000000000,0.0000000000,99.0000000000,27.0000000000,2.0000000000
1717675094948,9.0000000000,0.0000000000,0.0000000000,99.0000000000,25.0000000000,1.0000000000
1717675094949,9.0000000000,0.0000000000,0.0000000000,98.0000000000,26.0000000000,2.0000000000
1717675094949,9.0000000000,0.0000000000,0.0000000000,97.0000000000,26.0000000000,1.0000000000
1717675094949,7.0000000000,0.0000000000,0.0000000000,97.0000000000,26.0000000000,1.0000000000
1717675094949,8.0000000000,0.0000000000,0.0000000000,96.0000000000,25.0000000000,2.0000000000
1717675094981,8.0000000000,0.0000000000,0.0000000000,96.0000000000,25.0000000000,2.0000000000
1717675094982,8.0000000000,0.0000000000,0.0000000000,96.0000000000,25.0000000000,2.0000000000
1717675094982,8.0000000000,0.0000000000,0.0000000000,96.0000000000,25.0000000000,1.0000000000
1717675094982,8.0000000000,0.0000000000,0.0000000000,96.0000000000,25.0000000000,1.0000000000
1717675094982,8.0000000000,0.0000000000,0.0000000000,95.0000000000,25.0000000000,1.0000000000
1717675094982,7.0000000000,0.0000000000,0.0000000000,94.0000000000,25.0000000000,1.0000000000
1717675094982,8.0000000000,0.0000000000,0.0000000000,94.0000000000,24.0000000000,1.0000000000
1717675094982,7.0000000000,0.0000000000,0.0000000000,94.0000000000,24.0000000000,1.0000000000
1717675094982,7.0000000000,0.0000000000,0.0000000000,93.0000000000,25.0000000000,1.0000000000
1717675094983,7.0000000000,0.0000000000,0.0000000000,93.0000000000,24.0000000000,2.0000000000
1717675094983,8.0000000000,0.0000000000,0.0000000000,92.0000000000,24.0000000000,2.0000000000
1717675094983,7.0000000000,0.0000000000,0.0000000000,92.0000000000,24.0000000000,1.0000000000
1717675094983,8.0000000000,0.0000000000,0.0000000000,92.0000000000,24.0000000000,1.0000000000
1717675094983,8.0000000000,0.0000000000,0.0000000000,92.0000000000,24.0000000000,1.0000000000
1717675094983,8.0000000000,0.0000000000,0.0000000000,91.0000000000,24.0000000000,1.0000000000
1717675094983,7.0000000000,0.0000000000,0.0000000000,91.0000000000,24.0000000000,2.0000000000
1717675094984,7.0000000000,0.0000000000,0.0000000000,91.0000000000,24.0000000000,1.0000000000
1717675094984,8.0000000000,0.0000000000,0.0000000000,90.0000000000,24.0000000000,1.0000000000
1717675094984,7.0000000000,0.0000000000,0.0000000000,90.0000000000,24.0000000000,1.0000000000
1717675094984,7.0000000000,0.0000000000,0.0000000000,89.0000000000,24.0000000000,1.0000000000
1717675094984,7.0000000000,0.0000000000,0.0000000000,89.0000000000,23.0000000000,1.0000000000
1717675094984,7.0000000000,0.0000000000,0.0000000000,88.0000000000,23.0000000000,1.0000000000
1717675094984,7.0000000000,0.0000000000,0.0000000000,88.0000000000,24.0000000000,1.0000000000
1717675094984,7.0000000000,0.0000000000,0.0000000000,88.0000000000,24.0000000000,1.0000000000
1717675094985,7.0000000000,0.0000000000,0.0000000000,88.0000000000,23.0000000000,1.0000000000
1717675094985,7.0000000000,0.0000000000,0.0000000000,87.0000000000,23.0000000000,1.0000000000
1717675094985,7.0000000000,0.0000000000,0.0000000000,87.0000000000,23.0000000000,1.0000000000
1717675094985,7.0000000000,0.0000000000,0.0000000000,87.0000000000,23.0000000000,1.0000000000
1717675094985,7.0000000000,0.0000000000,0.0000000000,86.0000000000,23.0000000000,1.0000000000
1717675095001,7.0000000000,0.0000000000,0.0000000000,86.0000000000,23.0000000000,1.0000000000
1717675095003,7.0000000000,0.0000000000,0.0000000000,86.0000000000,22.0000000000,1.0000000000
1717675095003,7.0000000000,0.0000000000,0.0000000000,85.0000000000,22.0000000000,1.0000000000
1717675095004,7.0000000000,0.0000000000,0.0000000000,84.0000000000,22.0000000000,1.0000000000
1717675095004,7.0000000000,0.0000000000,0.0000000000,84.0000000000,22.0000000000,1.0000000000
1717675095004,7.0000000000,0.0000000000,0.0000000000,84.0000000000,22.0000000000,1.0000000000
1717675095004,7.0000000000,0.0000000000,0.0000000000,84.0000000000,22.0000000000,1.0000000000
1717675095005,7.0000000000,0.0000000000,0.0000000000,83.0000000000,22.0000000000,1.0000000000
1717675095005,7.0000000000,0.0000000000,0.0000000000,83.0000000000,22.0000000000,1.0000000000
1717675095005,7.0000000000,0.0000000000,0.0000000000,83.0000000000,21.0000000000,1.0000000000
1717675095005,7.0000000000,0.0000000000,0.0000000000,82.0000000000,21.0000000000,1.0000000000
1717675095005,7.0000000000,0.0000000000,0.0000000000,82.0000000000,22.0000000000,1.0000000000
1717675095005,7.0000000000,0.0000000000,0.0000000000,81.0000000000,22.0000000000,1.0000000000
1717675095005,7.0000000000,0.0000000000,0.0000000000,81.0000000000,20.0000000000,1.0000000000
1717675095005,8.0000000000,0.0000000000,0.0000000000,81.0000000000,22.0000000000,1.0000000000
1717675095006,8.0000000000,0.0000000000,0.0000000000,80.0000000000,21.0000000000,1.0000000000
1717675095019,8.0000000000,0.0000000000,0.0000000000,80.0000000000,20.0000000000,1.0000000000
1717675095020,7.0000000000,0.0000000000,0.0000000000,80.0000000000,20.0000000000,1.0000000000
1717675095020,7.0000000000,0.0000000000,0.0000000000,79.0000000000,20.0000000000,1.0000000000
1717675095020,7.0000000000,0.0000000000,0.0000000000,79.0000000000,20.0000000000,1.0000000000
1717675095021,8.0000000000,0.0000000000,0.0000000000,79.0000000000,20.0000000000,1.0000000000
1717675095021,7.0000000000,0.0000000000,0.0000000000,79.0000000000,19.0000000000,1.0000000000
1717675095022,7.0000000000,0.0000000000,0.0000000000,79.0000000000,20.0000000000,1.0000000000
1717675095022,7.0000000000,0.0000000000,0.0000000000,78.0000000000,20.0000000000,1.0000000000
1717675095022,7.0000000000,0.0000000000,0.0000000000,78.0000000000,20.0000000000,1.0000000000
1717675095023,7.0000000000,0.0000000000,0.0000000000,78.0000000000,20.0000000000,0.0000000000
1717675095023,7.0000000000,0.0000000000,0.0000000000,77.0000000000,20.0000000000,1.0000000000
1717675095023,7.0000000000,0.0000000000,0.0000000000,77.0000000000,19.0000000000,1.0000000000
1717675095023,7.0000000000,0.0000000000,0.0000000000,76.0000000000,19.0000000000,1.0000000000
1717675095043,7.0000000000,0.0000000000,6.0000000000,76.0000000000,19.0000000000,0.0000000000
1717675095045,7.0000000000,0.0000000000,7.0000000000,76.0000000000,19.0000000000,1.0000000000
1717675095045,7.0000000000,0.0000000000,7.0000000000,76.0000000000,19.0000000000,1.0000000000
1717675095045,7.0000000000,0.0000000000,7.0000000000,75.0000000000,19.0000000000,0.0000000000
1717675095045,7.0000000000,0.0000000000,7.0000000000,75.0000000000,19.0000000000,1.0000000000
1717675095046,7.0000000000,0.0000000000,7.0000000000,75.0000000000,19.0000000000,1.0000000000
1717675095046,7.0000000000,0.0000000000,7.0000000000,75.0000000000,19.0000000000,0.0000000000
1717675095046,7.0000000000,0.0000000000,7.0000000000,74.0000000000,19.0000000000,1.0000000000
1717675095046,7.0000000000,0.0000000000,7.0000000000,73.0000000000,19.0000000000,0.0000000000
1717675095047,7.0000000000,0.0000000000,7.0000000000,73.0000000000,19.0000000000,1.0000000000
1717675095047,7.0000000000,0.0000000000,7.0000000000,73.0000000000,19.0000000000,1.0000000000
1717675095047,7.0000000000,0.0000000000,7.0000000000,73.0000000000,18.0000000000,1.0000000000
1717675095047,7.0000000000,0.0000000000,7.0000000000,73.0000000000,19.0000000000,0.0000000000
1717675095048,7.0000000000,0.0000000000,7.0000000000,71.0000000000,18.0000000000,1.0000000000
1717675095048,7.0000000000,0.0000000000,7.0000000000,72.0000000000,18.0000000000,1.0000000000
1717675095048,7.0000000000,0.0000000000,7.0000000000,71.0000000000,18.0000000000,1.0000000000
1717675095048,7.0000000000,0.0000000000,7.0000000000,71.0000000000,18.0000000000,0.0000000000
1717675095049,8.0000000000,0.0000000000,7.0000000000,71.0000000000,18.0000000000,1.0000000000
1717675095049,7.0000000000,0.0000000000,7.0000000000,71.0000000000,18.0000000000,0.0000000000
1717675095050,7.0000000000,0.0000000000,7.0000000000,71.0000000000,18.0000000000,0.0000000000
1717675095050,7.0000000000,0.0000000000,7.0000000000,71.0000000000,18.0000000000,1.0000000000
1717675095050,7.0000000000,0.0000000000,7.0000000000,71.0000000000,17.0000000000,1.0000000000
1717675095074,7.0000000000,0.0000000000,67.0000000000,71.0000000000,17.0000000000,1.0000000000
1717675095075,7.0000000000,13.0000000000,130.0000000000,70.0000000000,18.0000000000,1.0000000000
1717675095075,7.0000000000,13.0000000000,127.0000000000,69.0000000000,17.0000000000,1.0000000000
1717675095075,7.0000000000,13.0000000000,127.0000000000,69.0000000000,18.0000000000,0.0000000000
1717675095075,7.0000000000,13.0000000000,127.0000000000,68.0000000000,17.0000000000,1.0000000000
1717675095075,7.0000000000,12.0000000000,126.0000000000,68.0000000000,17.0000000000,0.0000000000
1717675095075,7.0000000000,13.0000000000,124.0000000000,68.0000000000,17.0000000000,0.0000000000
1717675095075,9.0000000000,12.0000000000,124.0000000000,68.0000000000,17.0000000000,0.0000000000
1717675095076,9.0000000000,12.0000000000,123.0000000000,67.0000000000,17.0000000000,0.0000000000
1717675095076,9.0000000000,14.0000000000,122.0000000000,67.0000000000,17.0000000000,0.0000000000
1717675095076,11.0000000000,44.0000000000,121.0000000000,67.0000000000,17.0000000000,1.0000000000
1717675095076,10.0000000000,152.0000000000,120.0000000000,67.0000000000,17.0000000000,0.0000000000
1717675095076,10.0000000000,159.0000000000,143.0000000000,66.0000000000,16.0000000000,0.0000000000
1717675095076,9.0000000000,158.0000000000,142.0000000000,66.0000000000,16.0000000000,0.0000000000
1717675095076,9.0000000000,156.0000000000,140.0000000000,65.0000000000,16.0000000000,1.0000000000
1717675095076,9.0000000000,155.0000000000,140.0000000000,65.0000000000,16.0000000000,0.0000000000
1717675095094,10.0000000000,153.0000000000,184.0000000000,65.0000000000,16.0000000000,0.0000000000
1717675095095,9.0000000000,152.0000000000,182.0000000000,64.0000000000,16.0000000000,0.0000000000
1717675095095,9.0000000000,152.0000000000,181.0000000000,63.0000000000,15.0000000000,1.0000000000
1717675095096,9.0000000000,151.0000000000,179.0000000000,64.0000000000,15.0000000000,0.0000000000
1717675095096,11.0000000000,149.0000000000,178.0000000000,63.0000000000,15.0000000000,0.0000000000
1717675095096,11.0000000000,149.0000000000,227.0000000000,63.0000000000,15.0000000000,0.0000000000
1717675095096,11.0000000000,147.0000000000,240.0000000000,63.0000000000,15.0000000000,0.0000000000
1717675095097,11.0000000000,147.0000000000,238.0000000000,62.0000000000,15.0000000000,0.0000000000
1717675095097,11.0000000000,145.0000000000,236.0000000000,63.0000000000,15.0000000000,0.0000000000
1717675095097,10.0000000000,144.0000000000,235.0000000000,62.0000000000,15.0000000000,0.0000000000
1717675095098,10.0000000000,143.0000000000,231.0000000000,62.0000000000,15.0000000000,0.0000000000
1717675095098,10.0000000000,143.0000000000,287.0000000000,61.0000000000,15.0000000000,0.0000000000
1717675095129,9.0000000000,143.0000000000,284.0000000000,61.0000000000,15.0000000000,0.0000000000
1717675095129,15.0000000000,142.0000000000,280.0000000000,61.0000000000,15.0000000000,0.0000000000
1717675095129,21.0000000000,140.0000000000,279.0000000000,60.0000000000,15.0000000000,0.0000000000
1717675095129,27.0000000000,140.0000000000,276.0000000000,60.0000000000,15.0000000000,0.0000000000
1717675095129,27.0000000000,139.0000000000,275.0000000000,60.0000000000,15.0000000000,0.0000000000
1717675095129,27.0000000000,138.0000000000,273.0000000000,60.0000000000,15.0000000000,0.0000000000
1717675095129,26.0000000000,137.0000000000,271.0000000000,59.0000000000,14.0000000000,0.0000000000
1717675095130,26.0000000000,135.0000000000,269.0000000000,59.0000000000,15.0000000000,0.0000000000
1717675095130,26.0000000000,135.0000000000,268.0000000000,59.0000000000,15.0000000000,0.0000000000
1717675095130,25.0000000000,135.0000000000,266.0000000000,59.0000000000,14.0000000000,0.0000000000
1717675095130,25.0000000000,134.0000000000,263.0000000000,59.0000000000,14.0000000000,0.0000000000
1717675095130,25.0000000000,134.0000000000,263.0000000000,57.0000000000,14.0000000000,0.0000000000
1717675095130,25.0000000000,132.0000000000,261.0000000000,57.0000000000,14.0000000000,0.0000000000
1717675095130,25.0000000000,214.0000000000,342.0000000000,57.0000000000,14.0000000000,0.0000000000
1717675095130,25.0000000000,231.0000000000,358.0000000000,57.0000000000,14.0000000000,0.0000000000
1717675095130,24.0000000000,230.0000000000,355.0000000000,87.0000000000,14.0000000000,0.0000000000
1717675095130,26.0000000000,228.0000000000,352.0000000000,86.0000000000,14.0000000000,0.0000000000
1717675095130,25.0000000000,227.0000000000,350.0000000000,85.0000000000,14.0000000000,0.0000000000
1717675095131,25.0000000000,225.0000000000,347.0000000000,84.0000000000,14.0000000000,0.0000000000
1717675095146,25.0000000000,224.0000000000,344.0000000000,84.0000000000,14.0000000000,0.0000000000
1717675095147,25.0000000000,222.0000000000,342.0000000000,83.0000000000,14.0000000000,0.0000000000
1717675095148,24.0000000000,221.0000000000,339.0000000000,83.0000000000,13.0000000000,0.0000000000
1717675095148,25.0000000000,220.0000000000,337.0000000000,83.0000000000,13.0000000000,0.0000000000
1717675095148,25.0000000000,218.0000000000,419.0000000000,83.0000000000,13.0000000000,0.0000000000
1717675095148,25.0000000000,216.0000000000,414.0000000000,81.0000000000,13.0000000000,0.0000000000
1717675095149,24.0000000000,215.0000000000,409.0000000000,81.0000000000,13.0000000000,0.0000000000
1717675095149,24.0000000000,214.0000000000,407.0000000000,81.0000000000,13.0000000000,0.0000000000
1717675095149,25.0000000000,212.0000000000,403.0000000000,80.0000000000,13.0000000000,0.0000000000
1717675095149,25.0000000000,211.0000000000,400.0000000000,79.0000000000,13.0000000000,0.0000000000
1717675095150,25.0000000000,210.0000000000,398.0000000000,79.0000000000,12.0000000000,0.0000000000
1717675095150,25.0000000000,209.0000000000,395.0000000000,79.0000000000,12.0000000000,0.0000000000
1717675095178,24.0000000000,207.0000000000,391.0000000000,79.0000000000,13.0000000000,0.0000000000
1717675095179,24.0000000000,285.0000000000,389.0000000000,78.0000000000,15.0000000000,0.0000000000
1717675095179,24.0000000000,280.0000000000,387.0000000000,77.0000000000,14.0000000000,0.0000000000
1717675095179,24.0000000000,278.0000000000,384.0000000000,76.0000000000,15.0000000000,0.0000000000
1717675095179,24.0000000000,276.0000000000,382.0000000000,76.0000000000,14.0000000000,0.0000000000
1717675095179,24.0000000000,274.0000000000,380.0000000000,76.0000000000,14.0000000000,0.0000000000
1717675095179,24.0000000000,272.0000000000,377.0000000000,76.0000000000,14.0000000000,0.0000000000
1717675095179,99.0000000000,271.0000000000,432.0000000000,75.0000000000,14.0000000000,0.0000000000
1717675095179,98.0000000000,269.0000000000,455.0000000000,75.0000000000,14.0000000000,0.0000000000
1717675095179,171.0000000000,267.0000000000,452.0000000000,74.0000000000,14.0000000000,0.0000000000
1717675095179,240.0000000000,265.0000000000,448.0000000000,74.0000000000,14.0000000000,0.0000000000
1717675095180,236.0000000000,368.0000000000,444.0000000000,73.0000000000,13.0000000000,0.0000000000
1717675095180,235.0000000000,364.0000000000,440.0000000000,72.0000000000,14.0000000000,0.0000000000
1717675095180,231.0000000000,359.0000000000,438.0000000000,75.0000000000,14.0000000000,0.0000000000
1717675095180,231.0000000000,358.0000000000,433.0000000000,75.0000000000,14.0000000000,0.0000000000
1717675095180,228.0000000000,354.0000000000,435.0000000000,75.0000000000,14.0000000000,0.0000000000
1717675095180,227.0000000000,351.0000000000,432.0000000000,75.0000000000,14.0000000000,0.0000000000
1717675095196,225.0000000000,349.0000000000,428.0000000000,74.0000000000,14.0000000000,0.0000000000
1717675095197,224.0000000000,345.0000000000,425.0000000000,73.0000000000,14.0000000000,0.0000000000
1717675095197,222.0000000000,344.0000000000,422.0000000000,73.0000000000,14.0000000000,0.0000000000
1717675095197,220.0000000000,341.0000000000,418.0000000000,73.0000000000,14.0000000000,0.0000000000
1717675095197,219.0000000000,339.0000000000,415.0000000000,71.0000000000,14.0000000000,0.0000000000
1717675095197,217.0000000000,336.0000000000,412.0000000000,71.0000000000,14.0000000000,0.0000000000
1717675095197,216.0000000000,334.0000000000,409.0000000000,71.0000000000,14.0000000000,0.0000000000
1717675095197,215.0000000000,332.0000000000,407.0000000000,71.0000000000,13.0000000000,0.0000000000
1717675095197,214.0000000000,329.0000000000,404.0000000000,71.0000000000,13.0000000000,0.0000000000
1717675095197,212.0000000000,327.0000000000,401.0000000000,70.0000000000,13.0000000000,0.0000000000
1717675095197,211.0000000000,326.0000000000,483.0000000000,70.0000000000,14.0000000000,0.0000000000
1717675095222,209.0000000000,323.0000000000,495.0000000000,86.0000000000,13.0000000000,0.0000000000
1717675095223,222.0000000000,321.0000000000,489.0000000000,129.0000000000,13.0000000000,0.0000000000
1717675095223,232.0000000000,319.0000000000,555.0000000000,127.0000000000,13.0000000000,0.0000000000
1717675095224,231.0000000000,316.0000000000,654.0000000000,126.0000000000,13.0000000000,0.0000000000
1717675095224,287.0000000000,313.0000000000,643.0000000000,126.0000000000,13.0000000000,0.0000000000
1717675095224,285.0000000000,312.0000000000,636.0000000000,124.0000000000,13.0000000000,0.0000000000
1717675095225,283.0000000000,311.0000000000,630.0000000000,124.0000000000,38.0000000000,0.0000000000
1717675095225,280.0000000000,441.0000000000,699.0000000000,123.0000000000,56.0000000000,0.0000000000
1717675095225,278.0000000000,435.0000000000,688.0000000000,122.0000000000,56.0000000000,0.0000000000
1717675095226,294.0000000000,432.0000000000,702.0000000000,121.0000000000,56.0000000000,0.0000000000
1717675095226,440.0000000000,428.0000000000,693.0000000000,121.0000000000,55.0000000000,0.0000000000
1717675095226,475.0000000000,423.0000000000,686.0000000000,129.0000000000,55.0000000000,0.0000000000
1717675095226,470.0000000000,419.0000000000,679.0000000000,127.0000000000,54.0000000000,0.0000000000
1717675095227,465.0000000000,466.0000000000,775.0000000000,127.0000000000,53.0000000000,0.0000000000
1717675095227,460.0000000000,460.0000000000,787.0000000000,126.0000000000,53.0000000000,0.0000000000
1717675095227,455.0000000000,455.0000000000,779.0000000000,125.0000000000,52.0000000000,0.0000000000
1717675095257,495.0000000000,451.0000000000,769.0000000000,131.0000000000,62.0000000000,0.0000000000
1717675095258,487.0000000000,515.0000000000,760.0000000000,130.0000000000,100.0000000000,0.0000000000
1717675095258,483.0000000000,579.0000000000,749.0000000000,129.0000000000,99.0000000000,0.0000000000
1717675095259,478.0000000000,572.0000000000,740.0000000000,127.0000000000,97.0000000000,0.0000000000
1717675095259,473.0000000000,565.0000000000,734.0000000000,127.0000000000,97.0000000000,0.0000000000
1717675095259,468.0000000000,559.0000000000,726.0000000000,126.0000000000,96.0000000000,0.0000000000
1717675095260,464.0000000000,555.0000000000,717.0000000000,126.0000000000,96.0000000000,0.0000000000
1717675095260,460.0000000000,549.0000000000,709.0000000000,125.0000000000,95.0000000000,0.0000000000
1717675095260,457.0000000000,543.0000000000,774.0000000000,124.0000000000,95.0000000000,0.0000000000
1717675095261,453.0000000000,539.0000000000,762.0000000000,123.0000000000,94.0000000000,0.0000000000
1717675095261,449.0000000000,535.0000000000,752.0000000000,122.0000000000,93.0000000000,0.0000000000
1717675095261,446.0000000000,529.0000000000,743.0000000000,121.0000000000,92.0000000000,0.0000000000
1717675095262,441.0000000000,524.0000000000,736.0000000000,120.0000000000,92.0000000000,0.0000000000
1717675095262,438.0000000000,519.0000000000,728.0000000000,120.0000000000,92.0000000000,0.0000000000
1717675095263,434.0000000000,516.0000000000,719.0000000000,119.0000000000,91.0000000000,0.0000000000
1717675095263,431.0000000000,511.0000000000,711.0000000000,118.0000000000,90.0000000000,0.0000000000
1717675095264,427.0000000000,507.0000000000,704.0000000000,117.0000000000,89.0000000000,0.0000000000
1717675095264,423.0000000000,502.0000000000,697.0000000000,116.0000000000,88.0000000000,0.0000000000
1717675095264,420.0000000000,498.0000000000,716.0000000000,115.0000000000,88.0000000000,0.0000000000
1717675095283,417.0000000000,495.0000000000,707.0000000000,115.0000000000,88.0000000000,0.0000000000
1717675095285,414.0000000000,491.0000000000,699.0000000000,115.0000000000,87.0000000000,0.0000000000
1717675095285,411.0000000000,486.0000000000,692.0000000000,113.0000000000,87.0000000000,0.0000000000
1717675095285,408.0000000000,482.0000000000,686.0000000000,164.0000000000,86.0000000000,0.0000000000
1717675095285,404.0000000000,479.0000000000,678.0000000000,163.0000000000,86.0000000000,0.0000000000
1717675095285,401.0000000000,475.0000000000,671.0000000000,162.0000000000,85.0000000000,0.0000000000
1717675095285,398.0000000000,471.0000000000,665.0000000000,160.0000000000,84.0000000000,0.0000000000
1717675095285,396.0000000000,499.0000000000,659.0000000000,159.0000000000,83.0000000000,0.0000000000
1717675095286,391.0000000000,516.0000000000,652.0000000000,158.0000000000,83.0000000000,0.0000000000
1717675095286,390.0000000000,511.0000000000,646.0000000000,157.0000000000,83.0000000000,0.0000000000
1717675095286,387.0000000000,505.0000000000,642.0000000000,156.0000000000,83.0000000000,0.0000000000
1717675095300,436.0000000000,575.0000000000,825.0000000000,155.0000000000,81.0000000000,0.0000000000
1717675095300,487.0000000000,574.0000000000,812.0000000000,153.0000000000,81.0000000000,0.0000000000
1717675095301,481.0000000000,568.0000000000,802.0000000000,153.0000000000,103.0000000000,0.0000000000
1717675095301,476.0000000000,561.0000000000,792.0000000000,152.0000000000,103.0000000000,0.0000000000
1717675095301,472.0000000000,556.0000000000,783.0000000000,151.0000000000,102.0000000000,0.0000000000
1717675095301,467.0000000000,551.0000000000,774.0000000000,150.0000000000,101.0000000000,0.0000000000
1717675095301,463.0000000000,544.0000000000,764.0000000000,148.0000000000,100.0000000000,0.0000000000
1717675095301,459.0000000000,540.0000000000,755.0000000000,147.0000000000,99.0000000000,0.0000000000
1717675095301,455.0000000000,535.0000000000,847.0000000000,147.0000000000,99.0000000000,0.0000000000
1717675095317,459.0000000000,531.0000000000,833.0000000000,145.0000000000,99.0000000000,0.0000000000
1717675095317,455.0000000000,540.0000000000,823.0000000000,144.0000000000,97.0000000000,0.0000000000
1717675095317,451.0000000000,534.0000000000,819.0000000000,143.0000000000,97.0000000000,0.0000000000
1717675095318,447.0000000000,528.0000000000,809.0000000000,143.0000000000,96.0000000000,0.0000000000
1717675095318,444.0000000000,524.0000000000,799.0000000000,142.0000000000,96.0000000000,0.0000000000
1717675095318,440.0000000000,519.0000000000,788.0000000000,142.0000000000,95.0000000000,0.0000000000
1717675095318,435.0000000000,515.0000000000,782.0000000000,140.0000000000,95.0000000000,0.0000000000
1717675095318,432.0000000000,510.0000000000,772.0000000000,140.0000000000,94.0000000000,0.0000000000
1717675095334,428.0000000000,507.0000000000,763.0000000000,139.0000000000,94.0000000000,0.0000000000
1717675095336,425.0000000000,502.0000000000,753.0000000000,137.0000000000,93.0000000000,0.0000000000
1717675095337,422.0000000000,497.0000000000,747.0000000000,137.0000000000,92.0000000000,1.0000000000
1717675095338,419.0000000000,493.0000000000,739.0000000000,135.0000000000,92.0000000000,1.0000000000
1717675095338,415.0000000000,491.0000000000,824.0000000000,135.0000000000,91.0000000000,1.0000000000
1717675095338,412.0000000000,486.0000000000,812.0000000000,135.0000000000,91.0000000000,1.0000000000
1717675095338,443.0000000000,482.0000000000,804.0000000000,134.0000000000,89.0000000000,1.0000000000
1717675095339,438.0000000000,478.0000000000,807.0000000000,132.0000000000,89.0000000000,1.0000000000
1717675095339,434.0000000000,475.0000000000,796.0000000000,131.0000000000,89.0000000000,1.0000000000
1717675095339,430.0000000000,471.0000000000,785.0000000000,131.0000000000,88.0000000000,1.0000000000
1717675095340,427.0000000000,467.0000000000,778.0000000000,130.0000000000,88.0000000000,0.0000000000
1717675095363,423.0000000000,463.0000000000,769.0000000000,129.0000000000,87.0000000000,1.0000000000
1717675095365,419.0000000000,460.0000000000,760.0000000000,128.0000000000,87.0000000000,1.0000000000
1717675095365,415.0000000000,455.0000000000,750.0000000000,127.0000000000,86.0000000000,1.0000000000
1717675095365,412.0000000000,452.0000000000,743.0000000000,127.0000000000,86.0000000000,1.0000000000
1717675095366,409.0000000000,449.0000000000,736.0000000000,126.0000000000,85.0000000000,1.0000000000
1717675095366,406.0000000000,446.0000000000,728.0000000000,126.0000000000,84.0000000000,1.0000000000
1717675095366,403.0000000000,443.0000000000,812.0000000000,125.0000000000,84.0000000000,1.0000000000
1717675095366,399.0000000000,440.0000000000,854.0000000000,124.0000000000,83.0000000000,1.0000000000
1717675095367,396.0000000000,435.0000000000,844.0000000000,124.0000000000,83.0000000000,1.0000000000
1717675095367,393.0000000000,432.0000000000,833.0000000000,123.0000000000,83.0000000000,1.0000000000
1717675095368,391.0000000000,430.0000000000,822.0000000000,121.0000000000,82.0000000000,0.0000000000
1717675095368,387.0000000000,427.0000000000,812.0000000000,121.0000000000,81.0000000000,0.0000000000
1717675095368,385.0000000000,423.0000000000,803.0000000000,120.0000000000,81.0000000000,1.0000000000
1717675095369,382.0000000000,419.0000000000,793.0000000000,120.0000000000,80.0000000000,1.0000000000
1717675095369,380.0000000000,417.0000000000,783.0000000000,120.0000000000,79.0000000000,1.0000000000
1717675095369,376.0000000000,415.0000000000,775.0000000000,118.0000000000,79.0000000000,1.0000000000
1717675095370,374.0000000000,412.0000000000,771.0000000000,118.0000000000,79.0000000000,0.0000000000
1717675095371,371.0000000000,408.0000000000,865.0000000000,116.0000000000,79.0000000000,0.0000000000
1717675095389,369.0000000000,406.0000000000,853.0000000000,129.0000000000,78.0000000000,0.0000000000
1717675095391,367.0000000000,403.0000000000,841.0000000000,127.0000000000,78.0000000000,0.0000000000
1717675095391,364.0000000000,400.0000000000,831.0000000000,127.0000000000,77.0000000000,0.0000000000
1717675095392,361.0000000000,397.0000000000,822.0000000000,126.0000000000,77.0000000000,0.0000000000
1717675095392,359.0000000000,395.0000000000,811.0000000000,125.0000000000,76.0000000000,1.0000000000
1717675095392,356.0000000000,391.0000000000,801.0000000000,124.0000000000,76.0000000000,0.0000000000
1717675095393,384.0000000000,389.0000000000,793.0000000000,124.0000000000,76.0000000000,1.0000000000
1717675095393,380.0000000000,387.0000000000,784.0000000000,123.0000000000,75.0000000000,0.0000000000
1717675095394,377.0000000000,384.0000000000,843.0000000000,121.0000000000,75.0000000000,0.0000000000
1717675095395,374.0000000000,382.0000000000,831.0000000000,120.0000000000,74.0000000000,1.0000000000
1717675095396,371.0000000000,379.0000000000,824.0000000000,120.0000000000,75.0000000000,0.0000000000
1717675095398,368.0000000000,376.0000000000,812.0000000000,120.0000000000,74.0000000000,0.0000000000
1717675095398,366.0000000000,375.0000000000,802.0000000000,119.0000000000,73.0000000000,0.0000000000
1717675095399,363.0000000000,371.0000000000,792.0000000000,118.0000000000,73.0000000000,0.0000000000
1717675095399,359.0000000000,369.0000000000,783.0000000000,117.0000000000,73.0000000000,0.0000000000
1717675095424,356.0000000000,367.0000000000,811.0000000000,115.0000000000,71.0000000000,0.0000000000
1717675095425,355.0000000000,364.0000000000,799.0000000000,115.0000000000,71.0000000000,1.0000000000
1717675095425,352.0000000000,362.0000000000,790.0000000000,115.0000000000,71.0000000000,1.0000000000
1717675095425,349.0000000000,359.0000000000,780.0000000000,114.0000000000,71.0000000000,0.0000000000
1717675095425,347.0000000000,357.0000000000,773.0000000000,113.0000000000,71.0000000000,1.0000000000
1717675095425,344.0000000000,355.0000000000,764.0000000000,113.0000000000,70.0000000000,0.0000000000
1717675095425,343.0000000000,353.0000000000,755.0000000000,112.0000000000,70.0000000000,0.0000000000
1717675095425,356.0000000000,387.0000000000,747.0000000000,176.0000000000,70.0000000000,1.0000000000
1717675095426,365.0000000000,580.0000000000,739.0000000000,184.0000000000,69.0000000000,0.0000000000
1717675095426,361.0000000000,579.0000000000,732.0000000000,183.0000000000,68.0000000000,0.0000000000
1717675095426,359.0000000000,646.0000000000,723.0000000000,182.0000000000,68.0000000000,0.0000000000
1717675095426,355.0000000000,638.0000000000,715.0000000000,180.0000000000,67.0000000000,0.0000000000
1717675095426,352.0000000000,631.0000000000,709.0000000000,179.0000000000,67.0000000000,0.0000000000
1717675095445,350.0000000000,624.0000000000,702.0000000000,260.0000000000,67.0000000000,0.0000000000
1717675095445,348.0000000000,618.0000000000,694.0000000000,257.0000000000,67.0000000000,0.0000000000
1717675095445,344.0000000000,611.0000000000,764.0000000000,255.0000000000,67.0000000000,0.0000000000
1717675095446,342.0000000000,605.0000000000,757.0000000000,252.0000000000,66.0000000000,0.0000000000
1717675095446,339.0000000000,599.0000000000,748.0000000000,251.0000000000,65.0000000000,1.0000000000
1717675095446,337.0000000000,594.0000000000,738.0000000000,248.0000000000,65.0000000000,0.0000000000
1717675095446,335.0000000000,588.0000000000,729.0000000000,247.0000000000,65.0000000000,0.0000000000
1717675095446,333.0000000000,583.0000000000,723.0000000000,245.0000000000,64.0000000000,0.0000000000
1717675095446,331.0000000000,575.0000000000,715.0000000000,243.0000000000,63.0000000000,0.0000000000
1717675095446,327.0000000000,572.0000000000,706.0000000000,241.0000000000,63.0000000000,0.0000000000
1717675095446,327.0000000000,568.0000000000,699.0000000000,240.0000000000,63.0000000000,0.0000000000
1717675095461,324.0000000000,561.0000000000,692.0000000000,238.0000000000,63.0000000000,0.0000000000
1717675095461,322.0000000000,556.0000000000,685.0000000000,236.0000000000,63.0000000000,0.0000000000
1717675095462,319.0000000000,551.0000000000,678.0000000000,235.0000000000,62.0000000000,0.0000000000
1717675095462,318.0000000000,547.0000000000,671.0000000000,233.0000000000,62.0000000000,0.0000000000
1717675095462,316.0000000000,543.0000000000,664.0000000000,231.0000000000,62.0000000000,0.0000000000
1717675095462,313.0000000000,537.0000000000,659.0000000000,230.0000000000,61.0000000000,0.0000000000
1717675095462,312.0000000000,532.0000000000,653.0000000000,228.0000000000,60.0000000000,0.0000000000
1717675095462,310.0000000000,529.0000000000,646.0000000000,227.0000000000,60.0000000000,0.0000000000
1717675095462,307.0000000000,524.0000000000,639.0000000000,225.0000000000,60.0000000000,0.0000000000
1717675095484,305.0000000000,519.0000000000,636.0000000000,224.0000000000,60.0000000000,0.0000000000
1717675095486,304.0000000000,515.0000000000,628.0000000000,223.0000000000,60.0000000000,0.0000000000
1717675095486,303.0000000000,511.0000000000,623.0000000000,222.0000000000,60.0000000000,0.0000000000
1717675095486,300.0000000000,507.0000000000,617.0000000000,220.0000000000,59.0000000000,0.0000000000
1717675095487,299.0000000000,503.0000000000,612.0000000000,218.0000000000,59.0000000000,0.0000000000
1717675095487,295.0000000000,499.0000000000,607.0000000000,217.0000000000,57.0000000000,0.0000000000
1717675095487,295.0000000000,496.0000000000,601.0000000000,216.0000000000,58.0000000000,0.0000000000
1717675095487,294.0000000000,491.0000000000,596.0000000000,215.0000000000,57.0000000000,0.0000000000
1717675095487,291.0000000000,487.0000000000,612.0000000000,214.0000000000,57.0000000000,0.0000000000
1717675095488,289.0000000000,483.0000000000,743.0000000000,211.0000000000,57.0000000000,0.0000000000
1717675095488,315.0000000000,480.0000000000,734.0000000000,211.0000000000,56.0000000000,0.0000000000
1717675095488,359.0000000000,476.0000000000,726.0000000000,209.0000000000,56.0000000000,0.0000000000
1717675095488,390.0000000000,515.0000000000,719.0000000000,207.0000000000,56.0000000000,0.0000000000
1717675095488,385.0000000000,575.0000000000,710.0000000000,207.0000000000,56.0000000000,0.0000000000
1717675095488,382.0000000000,569.0000000000,702.0000000000,205.0000000000,56.0000000000,0.0000000000
1717675095503,379.0000000000,563.0000000000,694.0000000000,204.0000000000,56.0000000000,0.0000000000
1717675095504,376.0000000000,558.0000000000,688.0000000000,203.0000000000,55.0000000000,0.0000000000
1717675095504,372.0000000000,551.0000000000,760.0000000000,201.0000000000,55.0000000000,0.0000000000
1717675095504,369.0000000000,548.0000000000,749.0000000000,199.0000000000,54.0000000000,0.0000000000
1717675095504,367.0000000000,543.0000000000,752.0000000000,199.0000000000,54.0000000000,0.0000000000
1717675095504,364.0000000000,537.0000000000,775.0000000000,198.0000000000,54.0000000000,0.0000000000
1717675095504,360.0000000000,532.0000000000,766.0000000000,196.0000000000,53.0000000000,0.0000000000
1717675095505,359.0000000000,527.0000000000,756.0000000000,195.0000000000,53.0000000000,0.0000000000
1717675095505,355.0000000000,524.0000000000,747.0000000000,195.0000000000,52.0000000000,0.0000000000
1717675095519,353.0000000000,519.0000000000,739.0000000000,193.0000000000,52.0000000000,0.0000000000
1717675095521,355.0000000000,514.0000000000,732.0000000000,192.0000000000,87.0000000000,0.0000000000
1717675095521,352.0000000000,509.0000000000,723.0000000000,191.0000000000,89.0000000000,0.0000000000
1717675095521,350.0000000000,505.0000000000,715.0000000000,190.0000000000,88.0000000000,0.0000000000
1717675095521,347.0000000000,501.0000000000,707.0000000000,188.0000000000,88.0000000000,0.0000000000
1717675095521,344.0000000000,497.0000000000,700.0000000000,188.0000000000,87.0000000000,0.0000000000
1717675095522,342.0000000000,493.0000000000,693.0000000000,186.0000000000,87.0000000000,0.0000000000
1717675095522,339.0000000000,489.0000000000,686.0000000000,185.0000000000,86.0000000000,0.0000000000
1717675095522,336.0000000000,485.0000000000,678.0000000000,184.0000000000,86.0000000000,0.0000000000
1717675095538,334.0000000000,480.0000000000,672.0000000000,183.0000000000,85.0000000000,0.0000000000
1717675095539,332.0000000000,477.0000000000,665.0000000000,182.0000000000,84.0000000000,0.0000000000
1717675095539,329.0000000000,473.0000000000,659.0000000000,181.0000000000,83.0000000000,0.0000000000
1717675095539,327.0000000000,470.0000000000,652.0000000000,179.0000000000,83.0000000000,0.0000000000
1717675095539,326.0000000000,492.0000000000,647.0000000000,179.0000000000,82.0000000000,0.0000000000
1717675095539,323.0000000000,486.0000000000,639.0000000000,177.0000000000,82.0000000000,0.0000000000
1717675095539,321.0000000000,482.0000000000,633.0000000000,176.0000000000,81.0000000000,0.0000000000
1717675095540,319.0000000000,478.0000000000,627.0000000000,176.0000000000,81.0000000000,0.0000000000
1717675095540,316.0000000000,473.0000000000,623.0000000000,175.0000000000,80.0000000000,0.0000000000
1717675095553,314.0000000000,537.0000000000,616.0000000000,174.0000000000,80.0000000000,1.0000000000
1717675095554,312.0000000000,533.0000000000,610.0000000000,172.0000000000,79.0000000000,1.0000000000
1717675095554,310.0000000000,527.0000000000,605.0000000000,172.0000000000,79.0000000000,1.0000000000
1717675095554,307.0000000000,523.0000000000,600.0000000000,171.0000000000,79.0000000000,0.0000000000
1717675095554,305.0000000000,518.0000000000,595.0000000000,169.0000000000,78.0000000000,1.0000000000
1717675095554,304.0000000000,514.0000000000,590.0000000000,168.0000000000,78.0000000000,1.0000000000
1717675095555,302.0000000000,508.0000000000,583.0000000000,167.0000000000,76.0000000000,1.0000000000
1717675095555,300.0000000000,504.0000000000,580.0000000000,167.0000000000,76.0000000000,1.0000000000
1717675095570,297.0000000000,499.0000000000,575.0000000000,166.0000000000,76.0000000000,1.0000000000
1717675095571,295.0000000000,495.0000000000,569.0000000000,164.0000000000,75.0000000000,0.0000000000
1717675095571,294.0000000000,492.0000000000,564.0000000000,163.0000000000,75.0000000000,1.0000000000
1717675095571,291.0000000000,487.0000000000,560.0000000000,163.0000000000,75.0000000000,1.0000000000
1717675095571,289.0000000000,483.0000000000,556.0000000000,161.0000000000,74.0000000000,0.0000000000
1717675095571,287.0000000000,478.0000000000,551.0000000000,161.0000000000,73.0000000000,1.0000000000
1717675095571,287.0000000000,476.0000000000,547.0000000000,243.0000000000,72.0000000000,0.0000000000
1717675095571,284.0000000000,472.0000000000,542.0000000000,294.0000000000,72.0000000000,1.0000000000
1717675095572,282.0000000000,467.0000000000,539.0000000000,291.0000000000,71.0000000000,0.0000000000
1717675095588,281.0000000000,463.0000000000,534.0000000000,289.0000000000,71.0000000000,0.0000000000
1717675095589,280.0000000000,461.0000000000,530.0000000000,287.0000000000,71.0000000000,0.0000000000
1717675095589,278.0000000000,457.0000000000,526.0000000000,285.0000000000,71.0000000000,0.0000000000
1717675095589,275.0000000000,453.0000000000,522.0000000000,282.0000000000,71.0000000000,0.0000000000
1717675095590,274.0000000000,449.0000000000,518.0000000000,280.0000000000,70.0000000000,0.0000000000
1717675095590,272.0000000000,447.0000000000,514.0000000000,279.0000000000,70.0000000000,0.0000000000
1717675095590,280.0000000000,444.0000000000,510.0000000000,276.0000000000,70.0000000000,0.0000000000
1717675095590,359.0000000000,440.0000000000,507.0000000000,274.0000000000,69.0000000000,0.0000000000
1717675095590,356.0000000000,436.0000000000,504.0000000000,271.0000000000,68.0000000000,0.0000000000
1717675095591,353.0000000000,434.0000000000,499.0000000000,271.0000000000,67.0000000000,0.0000000000
1717675095591,350.0000000000,431.0000000000,495.0000000000,268.0000000000,67.0000000000,0.0000000000
1717675095606,348.0000000000,428.0000000000,492.0000000000,267.0000000000,67.0000000000,1.0000000000
1717675095606,344.0000000000,423.0000000000,487.0000000000,265.0000000000,67.0000000000,0.0000000000
1717675095606,342.0000000000,422.0000000000,484.0000000000,263.0000000000,67.0000000000,0.0000000000
1717675095607,339.0000000000,418.0000000000,480.0000000000,262.0000000000,66.0000000000,0.0000000000
1717675095607,336.0000000000,415.0000000000,478.0000000000,259.0000000000,65.0000000000,0.0000000000
1717675095607,334.0000000000,412.0000000000,474.0000000000,257.0000000000,65.0000000000,0.0000000000
1717675095607,332.0000000000,410.0000000000,471.0000000000,255.0000000000,65.0000000000,0.0000000000
1717675095607,328.0000000000,407.0000000000,467.0000000000,255.0000000000,64.0000000000,0.0000000000
1717675095607,327.0000000000,404.0000000000,464.0000000000,252.0000000000,64.0000000000,0.0000000000
1717675095622,324.0000000000,401.0000000000,461.0000000000,251.0000000000,63.0000000000,0.0000000000
1717675095623,322.0000000000,398.0000000000,457.0000000000,249.0000000000,63.0000000000,0.0000000000
1717675095623,319.0000000000,396.0000000000,455.0000000000,248.0000000000,63.0000000000,0.0000000000
1717675095623,317.0000000000,393.0000000000,451.0000000000,246.0000000000,63.0000000000,0.0000000000
1717675095623,315.0000000000,391.0000000000,448.0000000000,244.0000000000,62.0000000000,0.0000000000
1717675095623,313.0000000000,387.0000000000,445.0000000000,243.0000000000,62.0000000000,0.0000000000
1717675095623,311.0000000000,385.0000000000,441.0000000000,241.0000000000,61.0000000000,0.0000000000
1717675095623,407.0000000000,384.0000000000,439.0000000000,240.0000000000,60.0000000000,0.0000000000
1717675095623,497.0000000000,380.0000000000,435.0000000000,238.0000000000,60.0000000000,0.0000000000
1717675095638,492.0000000000,377.0000000000,433.0000000000,237.0000000000,60.0000000000,0.0000000000
1717675095639,487.0000000000,376.0000000000,431.0000000000,236.0000000000,60.0000000000,0.0000000000
1717675095639,483.0000000000,373.0000000000,427.0000000000,233.0000000000,60.0000000000,0.0000000000
1717675095639,478.0000000000,370.0000000000,425.0000000000,232.0000000000,60.0000000000,0.0000000000
1717675095639,473.0000000000,368.0000000000,422.0000000000,231.0000000000,59.0000000000,0.0000000000
1717675095639,470.0000000000,367.0000000000,539.0000000000,230.0000000000,59.0000000000,0.0000000000
1717675095639,503.0000000000,364.0000000000,532.0000000000,228.0000000000,58.0000000000,0.0000000000
1717675095640,497.0000000000,361.0000000000,631.0000000000,227.0000000000,58.0000000000,0.0000000000
1717675095657,493.0000000000,359.0000000000,621.0000000000,225.0000000000,57.0000000000,0.0000000000
1717675095658,487.0000000000,356.0000000000,614.0000000000,224.0000000000,56.0000000000,0.0000000000
1717675095658,484.0000000000,354.0000000000,608.0000000000,223.0000000000,57.0000000000,0.0000000000
1717675095658,480.0000000000,352.0000000000,602.0000000000,222.0000000000,56.0000000000,0.0000000000
1717675095658,476.0000000000,470.0000000000,596.0000000000,220.0000000000,56.0000000000,0.0000000000
1717675095658,472.0000000000,471.0000000000,591.0000000000,219.0000000000,59.0000000000,0.0000000000
1717675095658,467.0000000000,465.0000000000,584.0000000000,217.0000000000,89.0000000000,0.0000000000
1717675095658,463.0000000000,461.0000000000,579.0000000000,216.0000000000,88.0000000000,0.0000000000
1717675095658,460.0000000000,504.0000000000,574.0000000000,215.0000000000,88.0000000000,0.0000000000
1717675095675,455.0000000000,499.0000000000,568.0000000000,213.0000000000,87.0000000000,0.0000000000
1717675095676,451.0000000000,494.0000000000,563.0000000000,212.0000000000,87.0000000000,0.0000000000
1717675095676,448.0000000000,488.0000000000,559.0000000000,211.0000000000,87.0000000000,1.0000000000
1717675095676,518.0000000000,484.0000000000,553.0000000000,209.0000000000,85.0000000000,1.0000000000
1717675095676,590.0000000000,480.0000000000,548.0000000000,207.0000000000,85.0000000000,1.0000000000
1717675095676,582.0000000000,476.0000000000,543.0000000000,207.0000000000,84.0000000000,0.0000000000
1717675095676,575.0000000000,472.0000000000,539.0000000000,206.0000000000,84.0000000000,0.0000000000
1717675095677,569.0000000000,468.0000000000,536.0000000000,204.0000000000,83.0000000000,0.0000000000
1717675095677,564.0000000000,463.0000000000,530.0000000000,203.0000000000,83.0000000000,1.0000000000
1717675095677,559.0000000000,460.0000000000,526.0000000000,202.0000000000,81.0000000000,0.0000000000
1717675095677,553.0000000000,456.0000000000,521.0000000000,214.0000000000,81.0000000000,1.0000000000
1717675095692,548.0000000000,452.0000000000,517.0000000000,301.0000000000,81.0000000000,1.0000000000
1717675095693,543.0000000000,449.0000000000,513.0000000000,297.0000000000,81.0000000000,1.0000000000
1717675095693,538.0000000000,446.0000000000,508.0000000000,295.0000000000,79.0000000000,1.0000000000
1717675095693,532.0000000000,442.0000000000,504.0000000000,293.0000000000,79.0000000000,1.0000000000
1717675095693,527.0000000000,438.0000000000,500.0000000000,291.0000000000,79.0000000000,1.0000000000
1717675095693,524.0000000000,435.0000000000,496.0000000000,289.0000000000,79.0000000000,1.0000000000
1717675095693,519.0000000000,511.0000000000,492.0000000000,287.0000000000,78.0000000000,1.0000000000
1717675095693,514.0000000000,504.0000000000,487.0000000000,285.0000000000,81.0000000000,1.0000000000
1717675095694,510.0000000000,499.0000000000,526.0000000000,283.0000000000,81.0000000000,1.0000000000
1717675095711,505.0000000000,495.0000000000,548.0000000000,280.0000000000,80.0000000000,1.0000000000
1717675095712,500.0000000000,491.0000000000,542.0000000000,279.0000000000,79.0000000000,1.0000000000
1717675095712,496.0000000000,562.0000000000,537.0000000000,277.0000000000,79.0000000000,1.0000000000
1717675095712,492.0000000000,553.0000000000,532.0000000000,275.0000000000,78.0000000000,1.0000000000
1717675095712,487.0000000000,548.0000000000,527.0000000000,273.0000000000,78.0000000000,1.0000000000
1717675095713,484.0000000000,543.0000000000,523.0000000000,271.0000000000,78.0000000000,1.0000000000
1717675095713,480.0000000000,539.0000000000,518.0000000000,269.0000000000,77.0000000000,1.0000000000
1717675095713,476.0000000000,533.0000000000,514.0000000000,268.0000000000,76.0000000000,1.0000000000
1717675095713,472.0000000000,527.0000000000,510.0000000000,265.0000000000,76.0000000000,1.0000000000
1717675095713,469.0000000000,524.0000000000,504.0000000000,263.0000000000,76.0000000000,1.0000000000
1717675095713,465.0000000000,519.0000000000,500.0000000000,262.0000000000,76.0000000000,1.0000000000
1717675095749,461.0000000000,515.0000000000,497.0000000000,260.0000000000,75.0000000000,1.0000000000
1717675095749,457.0000000000,510.0000000000,492.0000000000,258.0000000000,75.0000000000,1.0000000000
1717675095749,454.0000000000,513.0000000000,488.0000000000,257.0000000000,73.0000000000,1.0000000000
1717675095749,493.0000000000,603.0000000000,483.0000000000,339.0000000000,73.0000000000,1.0000000000
1717675095749,487.0000000000,595.0000000000,480.0000000000,335.0000000000,72.0000000000,1.0000000000
1717675095749,483.0000000000,588.0000000000,477.0000000000,332.0000000000,71.0000000000,1.0000000000
1717675095750,480.0000000000,582.0000000000,475.0000000000,329.0000000000,71.0000000000,1.0000000000
1717675095750,475.0000000000,577.0000000000,472.0000000000,327.0000000000,71.0000000000,1.0000000000
1717675095750,471.0000000000,572.0000000000,467.0000000000,324.0000000000,71.0000000000,1.0000000000
1717675095750,467.0000000000,566.0000000000,465.0000000000,322.0000000000,71.0000000000,1.0000000000
1717675095750,462.0000000000,560.0000000000,461.0000000000,319.0000000000,71.0000000000,1.0000000000
1717675095750,458.0000000000,556.0000000000,457.0000000000,318.0000000000,70.0000000000,1.0000000000
1717675095750,455.0000000000,551.0000000000,454.0000000000,315.0000000000,70.0000000000,1.0000000000
1717675095750,451.0000000000,545.0000000000,451.0000000000,312.0000000000,69.0000000000,1.0000000000
1717675095750,447.0000000000,540.0000000000,448.0000000000,311.0000000000,68.0000000000,1.0000000000
1717675095750,444.0000000000,536.0000000000,444.0000000000,308.0000000000,68.0000000000,1.0000000000
1717675095751,440.0000000000,531.0000000000,440.0000000000,306.0000000000,67.0000000000,1.0000000000
1717675095751,436.0000000000,527.0000000000,438.0000000000,304.0000000000,67.0000000000,1.0000000000
1717675095751,433.0000000000,522.0000000000,435.0000000000,302.0000000000,67.0000000000,1.0000000000
1717675095775,430.0000000000,519.0000000000,432.0000000000,300.0000000000,97.0000000000,1.0000000000
1717675095776,427.0000000000,514.0000000000,428.0000000000,297.0000000000,96.0000000000,1.0000000000
1717675095776,423.0000000000,509.0000000000,427.0000000000,295.0000000000,95.0000000000,1.0000000000
1717675095776,420.0000000000,504.0000000000,423.0000000000,294.0000000000,95.0000000000,1.0000000000
1717675095776,417.0000000000,502.0000000000,419.0000000000,291.0000000000,94.0000000000,1.0000000000
1717675095777,414.0000000000,497.0000000000,416.0000000000,289.0000000000,93.0000000000,1.0000000000
1717675095777,412.0000000000,492.0000000000,414.0000000000,287.0000000000,92.0000000000,1.0000000000
1717675095777,408.0000000000,487.0000000000,412.0000000000,286.0000000000,91.0000000000,1.0000000000
1717675095777,406.0000000000,486.0000000000,408.0000000000,326.0000000000,91.0000000000,1.0000000000
1717675095777,402.0000000000,481.0000000000,406.0000000000,323.0000000000,91.0000000000,0.0000000000
1717675095777,399.0000000000,477.0000000000,403.0000000000,319.0000000000,90.0000000000,1.0000000000
1717675095777,396.0000000000,543.0000000000,504.0000000000,318.0000000000,89.0000000000,0.0000000000
1717675095778,393.0000000000,537.0000000000,499.0000000000,316.0000000000,89.0000000000,1.0000000000
1717675095778,391.0000000000,532.0000000000,494.0000000000,312.0000000000,88.0000000000,1.0000000000
1717675095795,388.0000000000,527.0000000000,489.0000000000,310.0000000000,88.0000000000,1.0000000000
1717675095796,385.0000000000,522.0000000000,486.0000000000,307.0000000000,87.0000000000,1.0000000000
1717675095796,383.0000000000,518.0000000000,481.0000000000,305.0000000000,86.0000000000,0.0000000000
1717675095796,380.0000000000,513.0000000000,478.0000000000,304.0000000000,86.0000000000,0.0000000000
1717675095797,377.0000000000,508.0000000000,473.0000000000,302.0000000000,85.0000000000,0.0000000000
1717675095797,375.0000000000,504.0000000000,470.0000000000,299.0000000000,84.0000000000,1.0000000000
1717675095797,372.0000000000,614.0000000000,466.0000000000,295.0000000000,83.0000000000,0.0000000000
1717675095797,370.0000000000,608.0000000000,462.0000000000,295.0000000000,83.0000000000,1.0000000000
1717675095798,368.0000000000,601.0000000000,458.0000000000,292.0000000000,83.0000000000,0.0000000000
1717675095798,365.0000000000,595.0000000000,455.0000000000,291.0000000000,83.0000000000,0.0000000000
1717675095798,363.0000000000,588.0000000000,451.0000000000,288.0000000000,83.0000000000,0.0000000000
1717675095825,359.0000000000,583.0000000000,448.0000000000,287.0000000000,82.0000000000,0.0000000000
1717675095826,358.0000000000,578.0000000000,444.0000000000,285.0000000000,81.0000000000,0.0000000000
1717675095826,355.0000000000,572.0000000000,440.0000000000,283.0000000000,81.0000000000,0.0000000000
1717675095826,352.0000000000,566.0000000000,438.0000000000,281.0000000000,80.0000000000,1.0000000000
1717675095827,350.0000000000,562.0000000000,433.0000000000,280.0000000000,79.0000000000,0.0000000000
1717675095827,348.0000000000,556.0000000000,430.0000000000,278.0000000000,79.0000000000,0.0000000000
1717675095827,346.0000000000,551.0000000000,428.0000000000,275.0000000000,79.0000000000,0.0000000000
1717675095827,344.0000000000,546.0000000000,423.0000000000,274.0000000000,79.0000000000,1.0000000000
1717675095827,342.0000000000,542.0000000000,420.0000000000,271.0000000000,78.0000000000,1.0000000000
1717675095827,339.0000000000,537.0000000000,417.0000000000,271.0000000000,77.0000000000,1.0000000000
1717675095827,337.0000000000,532.0000000000,415.0000000000,268.0000000000,76.0000000000,0.0000000000
1717675095827,335.0000000000,527.0000000000,412.0000000000,267.0000000000,76.0000000000,0.0000000000
1717675095828,332.0000000000,523.0000000000,408.0000000000,265.0000000000,76.0000000000,0.0000000000
1717675095828,331.0000000000,519.0000000000,406.0000000000,263.0000000000,76.0000000000,1.0000000000
1717675095828,327.0000000000,514.0000000000,470.0000000000,262.0000000000,75.0000000000,1.0000000000
1717675095828,327.0000000000,510.0000000000,465.0000000000,259.0000000000,75.0000000000,0.0000000000
1717675095828,324.0000000000,505.0000000000,461.0000000000,258.0000000000,74.0000000000,1.0000000000
1717675095846,323.0000000000,502.0000000000,457.0000000000,256.0000000000,73.0000000000,0.0000000000
1717675095847,320.0000000000,497.0000000000,452.0000000000,255.0000000000,73.0000000000,0.0000000000
1717675095847,318.0000000000,493.0000000000,449.0000000000,254.0000000000,73.0000000000,0.0000000000
1717675095847,316.0000000000,489.0000000000,446.0000000000,252.0000000000,71.0000000000,1.0000000000
1717675095847,315.0000000000,486.0000000000,441.0000000000,251.0000000000,71.0000000000,0.0000000000
1717675095848,312.0000000000,482.0000000000,438.0000000000,249.0000000000,71.0000000000,9.0000000000
1717675095848,311.0000000000,478.0000000000,435.0000000000,248.0000000000,71.0000000000,9.0000000000
1717675095848,308.0000000000,473.0000000000,431.0000000000,246.0000000000,71.0000000000,9.0000000000
1717675095848,340.0000000000,472.0000000000,560.0000000000,244.0000000000,70.0000000000,9.0000000000
1717675095869,461.0000000000,467.0000000000,551.0000000000,243.0000000000,70.0000000000,9.0000000000
1717675095872,455.0000000000,463.0000000000,548.0000000000,241.0000000000,69.0000000000,9.0000000000
1717675095872,451.0000000000,469.0000000000,543.0000000000,240.0000000000,68.0000000000,9.0000000000
1717675095873,448.0000000000,488.0000000000,536.0000000000,239.0000000000,68.0000000000,9.0000000000
1717675095873,443.0000000000,484.0000000000,531.0000000000,237.0000000000,68.0000000000,9.0000000000
1717675095873,440.0000000000,480.0000000000,527.0000000000,236.0000000000,67.0000000000,9.0000000000
1717675095874,435.0000000000,475.0000000000,523.0000000000,233.0000000000,67.0000000000,9.0000000000
1717675095874,432.0000000000,503.0000000000,518.0000000000,233.0000000000,67.0000000000,8.0000000000
1717675095875,428.0000000000,534.0000000000,513.0000000000,231.0000000000,67.0000000000,9.0000000000
1717675095876,423.0000000000,527.0000000000,510.0000000000,230.0000000000,66.0000000000,8.0000000000
1717675095876,421.0000000000,523.0000000000,505.0000000000,228.0000000000,66.0000000000,7.0000000000
1717675095878,455.0000000000,519.0000000000,500.0000000000,227.0000000000,65.0000000000,8.0000000000
1717675095878,449.0000000000,513.0000000000,496.0000000000,225.0000000000,65.0000000000,7.0000000000
1717675095879,446.0000000000,509.0000000000,493.0000000000,224.0000000000,64.0000000000,7.0000000000
1717675095880,442.0000000000,504.0000000000,488.0000000000,223.0000000000,63.0000000000,7.0000000000
1717675095880,438.0000000000,499.0000000000,484.0000000000,222.0000000000,63.0000000000,7.0000000000
1717675095881,434.0000000000,496.0000000000,480.0000000000,220.0000000000,63.0000000000,7.0000000000
1717675095882,430.0000000000,492.0000000000,476.0000000000,219.0000000000,63.0000000000,7.0000000000
1717675095883,427.0000000000,487.0000000000,473.0000000000,217.0000000000,63.0000000000,7.0000000000
1717675095884,423.0000000000,483.0000000000,470.0000000000,216.0000000000,62.0000000000,7.0000000000
1717675095922,419.0000000000,480.0000000000,465.0000000000,216.0000000000,62.0000000000,7.0000000000
1717675095923,415.0000000000,476.0000000000,462.0000000000,215.0000000000,61.0000000000,7.0000000000
1717675095923,412.0000000000,472.0000000000,459.0000000000,213.0000000000,62.0000000000,7.0000000000
1717675095923,409.0000000000,467.0000000000,455.0000000000,211.0000000000,60.0000000000,7.0000000000
1717675095923,406.0000000000,463.0000000000,451.0000000000,211.0000000000,60.0000000000,7.0000000000
1717675095923,403.0000000000,487.0000000000,448.0000000000,209.0000000000,60.0000000000,7.0000000000
1717675095923,399.0000000000,483.0000000000,444.0000000000,207.0000000000,60.0000000000,7.0000000000
1717675095923,397.0000000000,479.0000000000,441.0000000000,207.0000000000,60.0000000000,7.0000000000
1717675095923,393.0000000000,475.0000000000,438.0000000000,206.0000000000,59.0000000000,7.0000000000
1717675095923,391.0000000000,471.0000000000,434.0000000000,204.0000000000,59.0000000000,7.0000000000
1717675095923,387.0000000000,466.0000000000,432.0000000000,203.0000000000,58.0000000000,7.0000000000
1717675095924,385.0000000000,462.0000000000,533.0000000000,201.0000000000,57.0000000000,7.0000000000
1717675095924,382.0000000000,460.0000000000,526.0000000000,201.0000000000,57.0000000000,7.0000000000
1717675095924,380.0000000000,468.0000000000,521.0000000000,199.0000000000,57.0000000000,7.0000000000
1717675095924,376.0000000000,549.0000000000,516.0000000000,199.0000000000,57.0000000000,7.0000000000
1717675095924,374.0000000000,543.0000000000,512.0000000000,198.0000000000,56.0000000000,7.0000000000
1717675095925,371.0000000000,539.0000000000,530.0000000000,196.0000000000,56.0000000000,7.0000000000
1717675095925,368.0000000000,534.0000000000,526.0000000000,195.0000000000,56.0000000000,7.0000000000
1717675095925,366.0000000000,527.0000000000,521.0000000000,194.0000000000,56.0000000000,7.0000000000
1717675095925,363.0000000000,523.0000000000,516.0000000000,193.0000000000,56.0000000000,7.0000000000
1717675095925,359.0000000000,519.0000000000,511.0000000000,192.0000000000,55.0000000000,7.0000000000
1717675095939,358.0000000000,515.0000000000,506.0000000000,192.0000000000,55.0000000000,6.0000000000
1717675095940,355.0000000000,509.0000000000,503.0000000000,190.0000000000,55.0000000000,6.0000000000
1717675095940,352.0000000000,504.0000000000,498.0000000000,189.0000000000,54.0000000000,7.0000000000
1717675095941,351.0000000000,500.0000000000,494.0000000000,211.0000000000,54.0000000000,6.0000000000
1717675095941,348.0000000000,497.0000000000,489.0000000000,209.0000000000,53.0000000000,7.0000000000
1717675095941,345.0000000000,492.0000000000,485.0000000000,207.0000000000,53.0000000000,6.0000000000
1717675095941,343.0000000000,498.0000000000,481.0000000000,207.0000000000,52.0000000000,7.0000000000
1717675095942,341.0000000000,492.0000000000,478.0000000000,205.0000000000,52.0000000000,6.0000000000
1717675095942,339.0000000000,593.0000000000,473.0000000000,204.0000000000,52.0000000000,6.0000000000
1717675095942,335.0000000000,585.0000000000,470.0000000000,203.0000000000,52.0000000000,6.0000000000
1717675095943,334.0000000000,579.0000000000,466.0000000000,200.0000000000,51.0000000000,6.0000000000
1717675095964,332.0000000000,573.0000000000,463.0000000000,199.0000000000,51.0000000000,6.0000000000
1717675095964,329.0000000000,569.0000000000,459.0000000000,225.0000000000,51.0000000000,6.0000000000
1717675095964,327.0000000000,563.0000000000,455.0000000000,223.0000000000,51.0000000000,6.0000000000
1717675095965,324.0000000000,557.0000000000,451.0000000000,221.0000000000,51.0000000000,6.0000000000
1717675095965,426.0000000000,551.0000000000,448.0000000000,220.0000000000,53.0000000000,6.0000000000
1717675095965,422.0000000000,547.0000000000,514.0000000000,218.0000000000,52.0000000000,6.0000000000
1717675095965,417.0000000000,543.0000000000,605.0000000000,216.0000000000,52.0000000000,6.0000000000
1717675095965,414.0000000000,537.0000000000,600.0000000000,215.0000000000,51.0000000000,5.0000000000
1717675095965,411.0000000000,532.0000000000,593.0000000000,340.0000000000,51.0000000000,6.0000000000
1717675095966,407.0000000000,528.0000000000,587.0000000000,336.0000000000,51.0000000000,5.0000000000
1717675095966,403.0000000000,524.0000000000,580.0000000000,333.0000000000,51.0000000000,5.0000000000
1717675095985,399.0000000000,519.0000000000,575.0000000000,329.0000000000,50.0000000000,5.0000000000
1717675095987,470.0000000000,548.0000000000,572.0000000000,327.0000000000,50.0000000000,6.0000000000
1717675095988,525.0000000000,624.0000000000,564.0000000000,326.0000000000,49.0000000000,5.0000000000
1717675095990,519.0000000000,616.0000000000,560.0000000000,323.0000000000,49.0000000000,5.0000000000
1717675095991,514.0000000000,610.0000000000,555.0000000000,319.0000000000,49.0000000000,5.0000000000
1717675095992,509.0000000000,603.0000000000,550.0000000000,318.0000000000,49.0000000000,5.0000000000
1717675095992,504.0000000000,599.0000000000,544.0000000000,316.0000000000,49.0000000000,4.0000000000
1717675095993,499.0000000000,591.0000000000,540.0000000000,313.0000000000,48.0000000000,4.0000000000
1717675095993,495.0000000000,585.0000000000,536.0000000000,311.0000000000,48.0000000000,4.0000000000
1717675095993,491.0000000000,579.0000000000,531.0000000000,308.0000000000,48.0000000000,5.0000000000
1717675095994,486.0000000000,574.0000000000,526.0000000000,306.0000000000,47.0000000000,4.0000000000
1717675095994,481.0000000000,569.0000000000,521.0000000000,304.0000000000,47.0000000000,4.0000000000
1717675095994,478.0000000000,564.0000000000,516.0000000000,302.0000000000,47.0000000000,5.0000000000
1717675095995,473.0000000000,559.0000000000,513.0000000000,300.0000000000,47.0000000000,4.0000000000
1717675095995,470.0000000000,553.0000000000,509.0000000000,297.0000000000,47.0000000000,4.0000000000
1717675095995,465.0000000000,550.0000000000,504.0000000000,295.0000000000,46.0000000000,4.0000000000
1717675096015,462.0000000000,544.0000000000,499.0000000000,294.0000000000,46.0000000000,4.0000000000
1717675096016,457.0000000000,540.0000000000,496.0000000000,291.0000000000,46.0000000000,4.0000000000
1717675096017,454.0000000000,535.0000000000,532.0000000000,289.0000000000,45.0000000000,4.0000000000
1717675096017,450.0000000000,531.0000000000,527.0000000000,287.0000000000,45.0000000000,4.0000000000
1717675096017,447.0000000000,526.0000000000,521.0000000000,286.0000000000,45.0000000000,4.0000000000
1717675096018,443.0000000000,520.0000000000,518.0000000000,284.0000000000,44.0000000000,4.0000000000
1717675096018,440.0000000000,516.0000000000,513.0000000000,282.0000000000,44.0000000000,3.0000000000
1717675096018,436.0000000000,513.0000000000,508.0000000000,280.0000000000,44.0000000000,4.0000000000
1717675096018,432.0000000000,508.0000000000,504.0000000000,279.0000000000,44.0000000000,4.0000000000
1717675096019,430.0000000000,504.0000000000,499.0000000000,276.0000000000,44.0000000000,4.0000000000
1717675096022,425.0000000000,499.0000000000,496.0000000000,275.0000000000,43.0000000000,4.0000000000
1717675096023,566.0000000000,497.0000000000,491.0000000000,273.0000000000,43.0000000000,3.0000000000
1717675096023,557.0000000000,492.0000000000,487.0000000000,271.0000000000,43.0000000000,4.0000000000
1717675096024,551.0000000000,487.0000000000,483.0000000000,269.0000000000,43.0000000000,4.0000000000
1717675096024,545.0000000000,483.0000000000,480.0000000000,268.0000000000,43.0000000000,3.0000000000
1717675096055,540.0000000000,481.0000000000,476.0000000000,266.0000000000,42.0000000000,3.0000000000
1717675096056,535.0000000000,476.0000000000,472.0000000000,263.0000000000,41.0000000000,3.0000000000
1717675096056,530.0000000000,472.0000000000,470.0000000000,262.0000000000,41.0000000000,3.0000000000
1717675096056,525.0000000000,469.0000000000,465.0000000000,260.0000000000,41.0000000000,3.0000000000
1717675096057,519.0000000000,466.0000000000,462.0000000000,259.0000000000,41.0000000000,3.0000000000
1717675096057,515.0000000000,463.0000000000,457.0000000000,257.0000000000,63.0000000000,3.0000000000
1717675096057,511.0000000000,459.0000000000,455.0000000000,255.0000000000,63.0000000000,3.0000000000
1717675096057,507.0000000000,465.0000000000,451.0000000000,254.0000000000,62.0000000000,3.0000000000
1717675096058,502.0000000000,460.0000000000,448.0000000000,253.0000000000,62.0000000000,3.0000000000
1717675096058,497.0000000000,457.0000000000,444.0000000000,252.0000000000,62.0000000000,3.0000000000
1717675096058,492.0000000000,454.0000000000,440.0000000000,249.0000000000,61.0000000000,3.0000000000
1717675096058,488.0000000000,449.0000000000,439.0000000000,248.0000000000,60.0000000000,3.0000000000
1717675096059,484.0000000000,446.0000000000,435.0000000000,246.0000000000,60.0000000000,3.0000000000
1717675096059,481.0000000000,444.0000000000,432.0000000000,246.0000000000,60.0000000000,3.0000000000
1717675096059,476.0000000000,456.0000000000,428.0000000000,243.0000000000,60.0000000000,3.0000000000
1717675096059,501.0000000000,492.0000000000,425.0000000000,366.0000000000,59.0000000000,3.0000000000
1717675096060,529.0000000000,487.0000000000,423.0000000000,359.0000000000,59.0000000000,3.0000000000
1717675096060,524.0000000000,483.0000000000,419.0000000000,358.0000000000,58.0000000000,3.0000000000
1717675096060,519.0000000000,479.0000000000,549.0000000000,354.0000000000,57.0000000000,3.0000000000
1717675096061,514.0000000000,474.0000000000,543.0000000000,352.0000000000,57.0000000000,3.0000000000
1717675096061,510.0000000000,470.0000000000,583.0000000000,348.0000000000,57.0000000000,3.0000000000
1717675096061,504.0000000000,466.0000000000,605.0000000000,346.0000000000,57.0000000000,3.0000000000
1717675096082,499.0000000000,463.0000000000,599.0000000000,344.0000000000,56.0000000000,3.0000000000
1717675096083,495.0000000000,459.0000000000,593.0000000000,340.0000000000,56.0000000000,3.0000000000
1717675096083,491.0000000000,454.0000000000,588.0000000000,338.0000000000,56.0000000000,3.0000000000
1717675096083,487.0000000000,463.0000000000,582.0000000000,335.0000000000,56.0000000000,3.0000000000
1717675096083,483.0000000000,460.0000000000,575.0000000000,334.0000000000,56.0000000000,3.0000000000
1717675096083,479.0000000000,455.0000000000,572.0000000000,331.0000000000,56.0000000000,3.0000000000
1717675096083,475.0000000000,451.0000000000,566.0000000000,327.0000000000,55.0000000000,3.0000000000
1717675096083,471.0000000000,448.0000000000,560.0000000000,326.0000000000,55.0000000000,2.0000000000
1717675096084,466.0000000000,444.0000000000,555.0000000000,323.0000000000,54.0000000000,3.0000000000
1717675096084,463.0000000000,440.0000000000,551.0000000000,321.0000000000,54.0000000000,3.0000000000
1717675096084,459.0000000000,436.0000000000,545.0000000000,319.0000000000,53.0000000000,3.0000000000
1717675096138,455.0000000000,434.0000000000,540.0000000000,317.0000000000,53.0000000000,3.0000000000
1717675096140,451.0000000000,431.0000000000,536.0000000000,315.0000000000,53.0000000000,3.0000000000
1717675096140,448.0000000000,428.0000000000,531.0000000000,312.0000000000,52.0000000000,3.0000000000
1717675096140,444.0000000000,423.0000000000,527.0000000000,310.0000000000,51.0000000000,3.0000000000
1717675096141,441.0000000000,420.0000000000,522.0000000000,308.0000000000,51.0000000000,2.0000000000
1717675096141,438.0000000000,419.0000000000,518.0000000000,307.0000000000,51.0000000000,2.0000000000
1717675096141,434.0000000000,415.0000000000,513.0000000000,304.0000000000,51.0000000000,3.0000000000
1717675096142,430.0000000000,412.0000000000,510.0000000000,302.0000000000,50.0000000000,2.0000000000
1717675096142,428.0000000000,409.0000000000,504.0000000000,300.0000000000,51.0000000000,3.0000000000
1717675096142,423.0000000000,407.0000000000,500.0000000000,298.0000000000,50.0000000000,3.0000000000
1717675096143,420.0000000000,403.0000000000,496.0000000000,295.0000000000,49.0000000000,3.0000000000
1717675096143,591.0000000000,400.0000000000,493.0000000000,294.0000000000,50.0000000000,3.0000000000
1717675096144,583.0000000000,398.0000000000,489.0000000000,291.0000000000,49.0000000000,3.0000000000
1717675096144,575.0000000000,396.0000000000,553.0000000000,290.0000000000,49.0000000000,3.0000000000
1717675096144,571.0000000000,392.0000000000,548.0000000000,287.0000000000,48.0000000000,3.0000000000
1717675096144,564.0000000000,390.0000000000,543.0000000000,286.0000000000,65.0000000000,3.0000000000
1717675096145,560.0000000000,387.0000000000,539.0000000000,297.0000000000,151.0000000000,3.0000000000
1717675096145,553.0000000000,384.0000000000,533.0000000000,295.0000000000,149.0000000000,3.0000000000
1717675096145,547.0000000000,383.0000000000,563.0000000000,294.0000000000,147.0000000000,3.0000000000
1717675096146,542.0000000000,380.0000000000,556.0000000000,291.0000000000,147.0000000000,3.0000000000
1717675096146,537.0000000000,377.0000000000,663.0000000000,289.0000000000,145.0000000000,3.0000000000
1717675096146,531.0000000000,375.0000000000,654.0000000000,287.0000000000,143.0000000000,3.0000000000
1717675096147,527.0000000000,454.0000000000,647.0000000000,285.0000000000,143.0000000000,3.0000000000
1717675096147,521.0000000000,449.0000000000,668.0000000000,283.0000000000,142.0000000000,3.0000000000
1717675096147,516.0000000000,444.0000000000,662.0000000000,280.0000000000,141.0000000000,3.0000000000
1717675096147,512.0000000000,500.0000000000,656.0000000000,280.0000000000,140.0000000000,3.0000000000
1717675096148,508.0000000000,496.0000000000,648.0000000000,277.0000000000,140.0000000000,3.0000000000
1717675096148,503.0000000000,491.0000000000,641.0000000000,275.0000000000,138.0000000000,3.0000000000
1717675096148,498.0000000000,486.0000000000,635.0000000000,273.0000000000,137.0000000000,3.0000000000
1717675096149,494.0000000000,481.0000000000,628.0000000000,271.0000000000,135.0000000000,3.0000000000
1717675096149,489.0000000000,476.0000000000,622.0000000000,270.0000000000,135.0000000000,3.0000000000
1717675096149,485.0000000000,472.0000000000,615.0000000000,268.0000000000,135.0000000000,3.0000000000
1717675096150,481.0000000000,467.0000000000,609.0000000000,267.0000000000,134.0000000000,3.0000000000
1717675096150,476.0000000000,465.0000000000,603.0000000000,264.0000000000,133.0000000000,3.0000000000
1717675096178,483.0000000000,463.0000000000,598.0000000000,263.0000000000,131.0000000000,3.0000000000
1717675096179,590.0000000000,504.0000000000,591.0000000000,262.0000000000,131.0000000000,3.0000000000
1717675096179,583.0000000000,546.0000000000,585.0000000000,259.0000000000,130.0000000000,3.0000000000
1717675096179,577.0000000000,539.0000000000,579.0000000000,258.0000000000,129.0000000000,3.0000000000
1717675096179,571.0000000000,532.0000000000,574.0000000000,255.0000000000,127.0000000000,3.0000000000
1717675096179,564.0000000000,527.0000000000,568.0000000000,254.0000000000,127.0000000000,3.0000000000
1717675096179,559.0000000000,522.0000000000,564.0000000000,252.0000000000,127.0000000000,3.0000000000
1717675096179,552.0000000000,517.0000000000,560.0000000000,251.0000000000,126.0000000000,3.0000000000
1717675096180,547.0000000000,512.0000000000,554.0000000000,249.0000000000,125.0000000000,2.0000000000
1717675096180,543.0000000000,508.0000000000,549.0000000000,248.0000000000,124.0000000000,3.0000000000
1717675096180,537.0000000000,503.0000000000,544.0000000000,247.0000000000,124.0000000000,2.0000000000
1717675096180,532.0000000000,498.0000000000,540.0000000000,244.0000000000,123.0000000000,2.0000000000
1717675096180,527.0000000000,494.0000000000,536.0000000000,243.0000000000,122.0000000000,3.0000000000
1717675096180,522.0000000000,491.0000000000,530.0000000000,242.0000000000,121.0000000000,3.0000000000
1717675096180,517.0000000000,486.0000000000,526.0000000000,240.0000000000,121.0000000000,2.0000000000
1717675096181,512.0000000000,481.0000000000,520.0000000000,239.0000000000,120.0000000000,3.0000000000
1717675096181,508.0000000000,478.0000000000,516.0000000000,238.0000000000,120.0000000000,3.0000000000
1717675096200,503.0000000000,473.0000000000,511.0000000000,236.0000000000,119.0000000000,3.0000000000
1717675096201,498.0000000000,469.0000000000,508.0000000000,234.0000000000,118.0000000000,3.0000000000
1717675096201,494.0000000000,465.0000000000,504.0000000000,233.0000000000,117.0000000000,3.0000000000
1717675096201,489.0000000000,604.0000000000,499.0000000000,231.0000000000,115.0000000000,3.0000000000
1717675096201,486.0000000000,595.0000000000,496.0000000000,230.0000000000,115.0000000000,3.0000000000
1717675096202,481.0000000000,590.0000000000,492.0000000000,228.0000000000,115.0000000000,3.0000000000
1717675096203,477.0000000000,583.0000000000,487.0000000000,227.0000000000,114.0000000000,3.0000000000
1717675096203,473.0000000000,577.0000000000,483.0000000000,225.0000000000,113.0000000000,3.0000000000
1717675096204,468.0000000000,571.0000000000,480.0000000000,224.0000000000,112.0000000000,3.0000000000
1717675096204,483.0000000000,566.0000000000,476.0000000000,223.0000000000,112.0000000000,3.0000000000
1717675096205,610.0000000000,561.0000000000,472.0000000000,222.0000000000,112.0000000000,3.0000000000
1717675096205,602.0000000000,556.0000000000,468.0000000000,220.0000000000,111.0000000000,3.0000000000
1717675096253,595.0000000000,551.0000000000,464.0000000000,220.0000000000,110.0000000000,3.0000000000
1717675096254,589.0000000000,545.0000000000,461.0000000000,217.0000000000,109.0000000000,3.0000000000
1717675096254,583.0000000000,540.0000000000,457.0000000000,216.0000000000,108.0000000000,3.0000000000
1717675096255,577.0000000000,535.0000000000,454.0000000000,215.0000000000,108.0000000000,2.0000000000
1717675096255,571.0000000000,530.0000000000,450.0000000000,214.0000000000,108.0000000000,2.0000000000
1717675096255,564.0000000000,525.0000000000,448.0000000000,212.0000000000,107.0000000000,2.0000000000
1717675096255,559.0000000000,519.0000000000,444.0000000000,211.0000000000,106.0000000000,3.0000000000
1717675096255,553.0000000000,515.0000000000,440.0000000000,209.0000000000,105.0000000000,3.0000000000
1717675096256,548.0000000000,511.0000000000,438.0000000000,208.0000000000,105.0000000000,3.0000000000
1717675096256,543.0000000000,506.0000000000,434.0000000000,207.0000000000,103.0000000000,3.0000000000
1717675096256,537.0000000000,502.0000000000,431.0000000000,206.0000000000,103.0000000000,2.0000000000
1717675096256,532.0000000000,497.0000000000,428.0000000000,205.0000000000,103.0000000000,2.0000000000
1717675096256,527.0000000000,494.0000000000,423.0000000000,204.0000000000,103.0000000000,2.0000000000
1717675096256,523.0000000000,489.0000000000,421.0000000000,203.0000000000,102.0000000000,2.0000000000
1717675096256,518.0000000000,486.0000000000,419.0000000000,201.0000000000,101.0000000000,2.0000000000
1717675096256,513.0000000000,481.0000000000,415.0000000000,199.0000000000,100.0000000000,2.0000000000
1717675096256,508.0000000000,478.0000000000,412.0000000000,199.0000000000,100.0000000000,2.0000000000
1717675096257,504.0000000000,473.0000000000,409.0000000000,198.0000000000,99.0000000000,1.0000000000
1717675096257,499.0000000000,470.0000000000,407.0000000000,196.0000000000,99.0000000000,2.0000000000
1717675096257,496.0000000000,465.0000000000,404.0000000000,195.0000000000,98.0000000000,2.0000000000
1717675096257,492.0000000000,463.0000000000,401.0000000000,195.0000000000,97.0000000000,2.0000000000
1717675096257,487.0000000000,459.0000000000,398.0000000000,193.0000000000,97.0000000000,2.0000000000
1717675096257,483.0000000000,455.0000000000,396.0000000000,192.0000000000,96.0000000000,1.0000000000
1717675096257,480.0000000000,451.0000000000,393.0000000000,192.0000000000,96.0000000000,2.0000000000
1717675096257,476.0000000000,449.0000000000,391.0000000000,190.0000000000,96.0000000000,2.0000000000
1717675096257,472.0000000000,446.0000000000,388.0000000000,189.0000000000,95.0000000000,2.0000000000
1717675096290,468.0000000000,441.0000000000,510.0000000000,188.0000000000,95.0000000000,2.0000000000
1717675096291,463.0000000000,438.0000000000,504.0000000000,187.0000000000,94.0000000000,2.0000000000
1717675096291,460.0000000000,435.0000000000,499.0000000000,290.0000000000,93.0000000000,2.0000000000
1717675096291,456.0000000000,432.0000000000,493.0000000000,290.0000000000,93.0000000000,1.0000000000
1717675096291,452.0000000000,428.0000000000,489.0000000000,287.0000000000,92.0000000000,1.0000000000
1717675096291,449.0000000000,425.0000000000,486.0000000000,285.0000000000,92.0000000000,1.0000000000
1717675096291,446.0000000000,423.0000000000,481.0000000000,284.0000000000,91.0000000000,2.0000000000
1717675096291,443.0000000000,419.0000000000,477.0000000000,281.0000000000,91.0000000000,2.0000000000
1717675096291,440.0000000000,417.0000000000,472.0000000000,280.0000000000,90.0000000000,2.0000000000
1717675096291,435.0000000000,414.0000000000,470.0000000000,276.0000000000,89.0000000000,2.0000000000
1717675096292,432.0000000000,410.0000000000,465.0000000000,275.0000000000,89.0000000000,1.0000000000
1717675096292,429.0000000000,408.0000000000,461.0000000000,273.0000000000,88.0000000000,1.0000000000
1717675096292,425.0000000000,404.0000000000,457.0000000000,271.0000000000,88.0000000000,2.0000000000
1717675096292,423.0000000000,402.0000000000,454.0000000000,268.0000000000,88.0000000000,1.0000000000
1717675096292,419.0000000000,399.0000000000,451.0000000000,267.0000000000,87.0000000000,2.0000000000
1717675096292,416.0000000000,396.0000000000,447.0000000000,265.0000000000,87.0000000000,1.0000000000
1717675096292,414.0000000000,393.0000000000,443.0000000000,263.0000000000,86.0000000000,1.0000000000
1717675096292,411.0000000000,391.0000000000,440.0000000000,262.0000000000,86.0000000000,1.0000000000
1717675096292,408.0000000000,388.0000000000,437.0000000000,259.0000000000,86.0000000000,1.0000000000
1717675096314,404.0000000000,385.0000000000,433.0000000000,259.0000000000,86.0000000000,1.0000000000
1717675096316,402.0000000000,494.0000000000,430.0000000000,255.0000000000,85.0000000000,1.0000000000
1717675096316,399.0000000000,487.0000000000,427.0000000000,255.0000000000,84.0000000000,1.0000000000
1717675096317,396.0000000000,483.0000000000,423.0000000000,253.0000000000,84.0000000000,1.0000000000
1717675096317,393.0000000000,480.0000000000,419.0000000000,252.0000000000,83.0000000000,1.0000000000
1717675096318,390.0000000000,476.0000000000,417.0000000000,249.0000000000,83.0000000000,1.0000000000
1717675096318,387.0000000000,472.0000000000,414.0000000000,248.0000000000,83.0000000000,1.0000000000
1717675096318,385.0000000000,467.0000000000,411.0000000000,247.0000000000,82.0000000000,1.0000000000
1717675096319,383.0000000000,476.0000000000,408.0000000000,245.0000000000,81.0000000000,1.0000000000
1717675096319,380.0000000000,472.0000000000,405.0000000000,243.0000000000,81.0000000000,1.0000000000
1717675096320,377.0000000000,467.0000000000,403.0000000000,242.0000000000,81.0000000000,1.0000000000
1717675096321,375.0000000000,463.0000000000,399.0000000000,240.0000000000,79.0000000000,1.0000000000
1717675096322,372.0000000000,521.0000000000,396.0000000000,239.0000000000,79.0000000000,1.0000000000
1717675096322,369.0000000000,515.0000000000,393.0000000000,237.0000000000,79.0000000000,1.0000000000
1717675096322,367.0000000000,510.0000000000,391.0000000000,236.0000000000,79.0000000000,1.0000000000
1717675096323,364.0000000000,505.0000000000,388.0000000000,233.0000000000,78.0000000000,1.0000000000
1717675096340,362.0000000000,500.0000000000,385.0000000000,231.0000000000,78.0000000000,1.0000000000
1717675096341,359.0000000000,496.0000000000,383.0000000000,231.0000000000,78.0000000000,1.0000000000
1717675096341,357.0000000000,492.0000000000,380.0000000000,230.0000000000,77.0000000000,1.0000000000
1717675096341,355.0000000000,487.0000000000,379.0000000000,228.0000000000,76.0000000000,1.0000000000
1717675096341,352.0000000000,483.0000000000,376.0000000000,227.0000000000,76.0000000000,1.0000000000
1717675096341,351.0000000000,480.0000000000,374.0000000000,225.0000000000,76.0000000000,1.0000000000
1717675096341,348.0000000000,476.0000000000,371.0000000000,224.0000000000,76.0000000000,1.0000000000
1717675096342,345.0000000000,472.0000000000,369.0000000000,223.0000000000,75.0000000000,1.0000000000
1717675096342,344.0000000000,467.0000000000,367.0000000000,221.0000000000,75.0000000000,1.0000000000
1717675096342,341.0000000000,463.0000000000,364.0000000000,220.0000000000,75.0000000000,1.0000000000
1717675096342,427.0000000000,460.0000000000,363.0000000000,219.0000000000,73.0000000000,1.0000000000
1717675096422,423.0000000000,455.0000000000,427.0000000000,217.0000000000,73.0000000000,1.0000000000
1717675096423,419.0000000000,452.0000000000,454.0000000000,216.0000000000,73.0000000000,1.0000000000
1717675096423,415.0000000000,449.0000000000,449.0000000000,215.0000000000,73.0000000000,1.0000000000
1717675096423,411.0000000000,446.0000000000,446.0000000000,214.0000000000,71.0000000000,1.0000000000
1717675096424,408.0000000000,441.0000000000,443.0000000000,211.0000000000,71.0000000000,1.0000000000
1717675096424,404.0000000000,439.0000000000,439.0000000000,211.0000000000,71.0000000000,1.0000000000
1717675096424,401.0000000000,435.0000000000,435.0000000000,209.0000000000,71.0000000000,1.0000000000
1717675096425,398.0000000000,513.0000000000,431.0000000000,207.0000000000,71.0000000000,0.0000000000
1717675096425,395.0000000000,516.0000000000,428.0000000000,207.0000000000,70.0000000000,0.0000000000
1717675096425,391.0000000000,511.0000000000,423.0000000000,206.0000000000,70.0000000000,1.0000000000
1717675096425,388.0000000000,508.0000000000,420.0000000000,204.0000000000,69.0000000000,1.0000000000
1717675096426,385.0000000000,502.0000000000,417.0000000000,203.0000000000,69.0000000000,1.0000000000
1717675096426,382.0000000000,497.0000000000,415.0000000000,201.0000000000,68.0000000000,0.0000000000
1717675096426,380.0000000000,492.0000000000,412.0000000000,200.0000000000,68.0000000000,0.0000000000
1717675096426,376.0000000000,489.0000000000,408.0000000000,199.0000000000,68.0000000000,0.0000000000
1717675096426,374.0000000000,484.0000000000,404.0000000000,199.0000000000,67.0000000000,0.0000000000
1717675096427,371.0000000000,561.0000000000,403.0000000000,289.0000000000,112.0000000000,1.0000000000
1717675096427,368.0000000000,553.0000000000,399.0000000000,286.0000000000,111.0000000000,0.0000000000
1717675096427,365.0000000000,547.0000000000,396.0000000000,283.0000000000,110.0000000000,0.0000000000
1717675096427,361.0000000000,542.0000000000,392.0000000000,281.0000000000,109.0000000000,0.0000000000
1717675096427,373.0000000000,536.0000000000,390.0000000000,279.0000000000,108.0000000000,1.0000000000
1717675096428,575.0000000000,531.0000000000,387.0000000000,276.0000000000,108.0000000000,1.0000000000
1717675096428,568.0000000000,526.0000000000,384.0000000000,275.0000000000,107.0000000000,1.0000000000
1717675096428,560.0000000000,521.0000000000,381.0000000000,273.0000000000,106.0000000000,1.0000000000
1717675096428,555.0000000000,518.0000000000,377.0000000000,271.0000000000,105.0000000000,1.0000000000
1717675096428,548.0000000000,513.0000000000,376.0000000000,268.0000000000,103.0000000000,1.0000000000
1717675096429,543.0000000000,508.0000000000,372.0000000000,267.0000000000,103.0000000000,1.0000000000
1717675096429,537.0000000000,504.0000000000,369.0000000000,263.0000000000,103.0000000000,1.0000000000
1717675096429,532.0000000000,499.0000000000,367.0000000000,263.0000000000,102.0000000000,1.0000000000
1717675096429,527.0000000000,494.0000000000,364.0000000000,260.0000000000,102.0000000000,1.0000000000
1717675096429,522.0000000000,489.0000000000,361.0000000000,259.0000000000,101.0000000000,1.0000000000
1717675096430,517.0000000000,486.0000000000,359.0000000000,257.0000000000,100.0000000000,1.0000000000
1717675096430,512.0000000000,481.0000000000,358.0000000000,255.0000000000,99.0000000000,1.0000000000
1717675096430,603.0000000000,551.0000000000,355.0000000000,253.0000000000,99.0000000000,1.0000000000
1717675096430,595.0000000000,547.0000000000,353.0000000000,252.0000000000,99.0000000000,1.0000000000
1717675096431,590.0000000000,540.0000000000,352.0000000000,250.0000000000,98.0000000000,1.0000000000
1717675096431,583.0000000000,536.0000000000,349.0000000000,248.0000000000,97.0000000000,1.0000000000
1717675096431,577.0000000000,531.0000000000,411.0000000000,247.0000000000,96.0000000000,1.0000000000
1717675096431,572.0000000000,527.0000000000,495.0000000000,246.0000000000,96.0000000000,1.0000000000
1717675096432,566.0000000000,521.0000000000,489.0000000000,243.0000000000,96.0000000000,1.0000000000
1717675096432,560.0000000000,515.0000000000,486.0000000000,242.0000000000,95.0000000000,1.0000000000
1717675096432,556.0000000000,511.0000000000,481.0000000000,240.0000000000,94.0000000000,1.0000000000
1717675096432,550.0000000000,508.0000000000,476.0000000000,239.0000000000,94.0000000000,1.0000000000
1717675096432,544.0000000000,503.0000000000,472.0000000000,238.0000000000,93.0000000000,1.0000000000
1717675096433,540.0000000000,498.0000000000,470.0000000000,236.0000000000,93.0000000000,0.0000000000
1717675096433,535.0000000000,494.0000000000,465.0000000000,234.0000000000,92.0000000000,1.0000000000
1717675096433,530.0000000000,489.0000000000,461.0000000000,233.0000000000,92.0000000000,1.0000000000
1717675096470,525.0000000000,487.0000000000,457.0000000000,231.0000000000,91.0000000000,1.0000000000
1717675096471,519.0000000000,482.0000000000,454.0000000000,230.0000000000,91.0000000000,1.0000000000
1717675096471,515.0000000000,478.0000000000,450.0000000000,228.0000000000,90.0000000000,1.0000000000
1717675096472,511.0000000000,473.0000000000,446.0000000000,227.0000000000,89.0000000000,1.0000000000
1717675096472,507.0000000000,471.0000000000,443.0000000000,225.0000000000,88.0000000000,1.0000000000
1717675096472,503.0000000000,467.0000000000,440.0000000000,224.0000000000,88.0000000000,1.0000000000
1717675096472,498.0000000000,463.0000000000,436.0000000000,223.0000000000,88.0000000000,1.0000000000
1717675096472,494.0000000000,459.0000000000,432.0000000000,221.0000000000,88.0000000000,1.0000000000
1717675096473,490.0000000000,455.0000000000,429.0000000000,220.0000000000,87.0000000000,1.0000000000
1717675096473,486.0000000000,452.0000000000,425.0000000000,219.0000000000,86.0000000000,1.0000000000
1717675096473,481.0000000000,449.0000000000,423.0000000000,217.0000000000,86.0000000000,1.0000000000
1717675096473,478.0000000000,449.0000000000,457.0000000000,216.0000000000,86.0000000000,1.0000000000
1717675096473,474.0000000000,446.0000000000,460.0000000000,215.0000000000,84.0000000000,1.0000000000
1717675096473,471.0000000000,441.0000000000,455.0000000000,213.0000000000,83.0000000000,1.0000000000
1717675096474,466.0000000000,438.0000000000,452.0000000000,211.0000000000,83.0000000000,1.0000000000
1717675096474,463.0000000000,434.0000000000,448.0000000000,211.0000000000,83.0000000000,1.0000000000
1717675096474,459.0000000000,432.0000000000,444.0000000000,209.0000000000,82.0000000000,1.0000000000
1717675096474,455.0000000000,428.0000000000,440.0000000000,207.0000000000,82.0000000000,1.0000000000
1717675096474,451.0000000000,425.0000000000,438.0000000000,207.0000000000,81.0000000000,0.0000000000
1717675096475,448.0000000000,422.0000000000,434.0000000000,206.0000000000,81.0000000000,1.0000000000
1717675096475,444.0000000000,419.0000000000,431.0000000000,204.0000000000,81.0000000000,0.0000000000
1717675096475,441.0000000000,415.0000000000,427.0000000000,204.0000000000,79.0000000000,1.0000000000
1717675096476,438.0000000000,413.0000000000,423.0000000000,202.0000000000,79.0000000000,1.0000000000
1717675096476,435.0000000000,465.0000000000,421.0000000000,235.0000000000,79.0000000000,1.0000000000
1717675096498,432.0000000000,461.0000000000,417.0000000000,232.0000000000,79.0000000000,0.0000000000
1717675096499,428.0000000000,456.0000000000,414.0000000000,231.0000000000,78.0000000000,1.0000000000
1717675096499,423.0000000000,452.0000000000,412.0000000000,229.0000000000,78.0000000000,1.0000000000
1717675096499,422.0000000000,448.0000000000,408.0000000000,227.0000000000,78.0000000000,1.0000000000
1717675096500,418.0000000000,444.0000000000,405.0000000000,226.0000000000,77.0000000000,0.0000000000
1717675096500,415.0000000000,441.0000000000,401.0000000000,224.0000000000,77.0000000000,1.0000000000
1717675096500,412.0000000000,437.0000000000,399.0000000000,223.0000000000,76.0000000000,1.0000000000
1717675096501,409.0000000000,433.0000000000,396.0000000000,255.0000000000,76.0000000000,0.0000000000
1717675096501,407.0000000000,430.0000000000,393.0000000000,299.0000000000,76.0000000000,1.0000000000
1717675096501,403.0000000000,428.0000000000,391.0000000000,295.0000000000,76.0000000000,0.0000000000
1717675096501,400.0000000000,423.0000000000,387.0000000000,294.0000000000,75.0000000000,1.0000000000
1717675096502,398.0000000000,419.0000000000,385.0000000000,291.0000000000,75.0000000000,0.0000000000
1717675096502,395.0000000000,415.0000000000,382.0000000000,289.0000000000,75.0000000000,0.0000000000
1717675096529,391.0000000000,414.0000000000,380.0000000000,287.0000000000,74.0000000000,1.0000000000
1717675096531,389.0000000000,411.0000000000,376.0000000000,285.0000000000,73.0000000000,0.0000000000
1717675096531,386.0000000000,407.0000000000,375.0000000000,283.0000000000,73.0000000000,1.0000000000
1717675096532,384.0000000000,404.0000000000,451.0000000000,280.0000000000,72.0000000000,0.0000000000
1717675096532,381.0000000000,401.0000000000,447.0000000000,279.0000000000,71.0000000000,0.0000000000
1717675096532,378.0000000000,399.0000000000,443.0000000000,276.0000000000,71.0000000000,0.0000000000
1717675096533,376.0000000000,396.0000000000,440.0000000000,275.0000000000,71.0000000000,0.0000000000
1717675096533,374.0000000000,392.0000000000,436.0000000000,272.0000000000,71.0000000000,0.0000000000
1717675096533,385.0000000000,391.0000000000,432.0000000000,271.0000000000,71.0000000000,0.0000000000
1717675096534,403.0000000000,387.0000000000,428.0000000000,269.0000000000,71.0000000000,1.0000000000
1717675096534,399.0000000000,384.0000000000,425.0000000000,268.0000000000,70.0000000000,1.0000000000
1717675096534,396.0000000000,382.0000000000,422.0000000000,265.0000000000,70.0000000000,0.0000000000
1717675096535,391.0000000000,380.0000000000,418.0000000000,263.0000000000,69.0000000000,0.0000000000
1717675096535,390.0000000000,377.0000000000,415.0000000000,262.0000000000,68.0000000000,0.0000000000
1717675096536,387.0000000000,375.0000000000,412.0000000000,259.0000000000,68.0000000000,0.0000000000
1717675096536,384.0000000000,371.0000000000,408.0000000000,258.0000000000,67.0000000000,0.0000000000
1717675096537,380.0000000000,370.0000000000,406.0000000000,257.0000000000,67.0000000000,0.0000000000
1717675096537,377.0000000000,368.0000000000,403.0000000000,255.0000000000,67.0000000000,0.0000000000
1717675096537,375.0000000000,365.0000000000,399.0000000000,254.0000000000,67.0000000000,0.0000000000
1717675096538,371.0000000000,362.0000000000,396.0000000000,252.0000000000,67.0000000000,0.0000000000
1717675096559,369.0000000000,359.0000000000,503.0000000000,251.0000000000,66.0000000000,0.0000000000
1717675096560,366.0000000000,359.0000000000,497.0000000000,248.0000000000,66.0000000000,0.0000000000
1717675096560,403.0000000000,355.0000000000,492.0000000000,247.0000000000,65.0000000000,0.0000000000
1717675096560,399.0000000000,425.0000000000,488.0000000000,245.0000000000,65.0000000000,0.0000000000
1717675096561,396.0000000000,420.0000000000,484.0000000000,243.0000000000,64.0000000000,0.0000000000
1717675096561,393.0000000000,418.0000000000,480.0000000000,243.0000000000,63.0000000000,0.0000000000
1717675096561,390.0000000000,414.0000000000,476.0000000000,252.0000000000,63.0000000000,0.0000000000
1717675096562,387.0000000000,411.0000000000,472.0000000000,250.0000000000,63.0000000000,0.0000000000
1717675096562,384.0000000000,407.0000000000,468.0000000000,248.0000000000,63.0000000000,0.0000000000
1717675096562,380.0000000000,404.0000000000,464.0000000000,247.0000000000,63.0000000000,0.0000000000
1717675096562,377.0000000000,399.0000000000,460.0000000000,244.0000000000,63.0000000000,0.0000000000
1717675096562,374.0000000000,397.0000000000,456.0000000000,243.0000000000,63.0000000000,0.0000000000
1717675096563,371.0000000000,393.0000000000,453.0000000000,241.0000000000,62.0000000000,0.0000000000
1717675096597,368.0000000000,418.0000000000,449.0000000000,240.0000000000,61.0000000000,0.0000000000
1717675096598,365.0000000000,427.0000000000,446.0000000000,238.0000000000,61.0000000000,0.0000000000
1717675096598,363.0000000000,423.0000000000,443.0000000000,236.0000000000,61.0000000000,0.0000000000
1717675096599,359.0000000000,419.0000000000,439.0000000000,235.0000000000,60.0000000000,0.0000000000
1717675096599,358.0000000000,415.0000000000,435.0000000000,233.0000000000,60.0000000000,0.0000000000
1717675096599,355.0000000000,413.0000000000,432.0000000000,231.0000000000,60.0000000000,0.0000000000
1717675096600,353.0000000000,409.0000000000,429.0000000000,231.0000000000,60.0000000000,0.0000000000
1717675096601,352.0000000000,406.0000000000,425.0000000000,229.0000000000,60.0000000000,0.0000000000
1717675096601,349.0000000000,403.0000000000,422.0000000000,227.0000000000,60.0000000000,0.0000000000
1717675096601,346.0000000000,399.0000000000,419.0000000000,227.0000000000,60.0000000000,0.0000000000
1717675096601,344.0000000000,396.0000000000,415.0000000000,225.0000000000,60.0000000000,0.0000000000
1717675096601,342.0000000000,391.0000000000,413.0000000000,224.0000000000,58.0000000000,0.0000000000
1717675096601,339.0000000000,391.0000000000,410.0000000000,222.0000000000,59.0000000000,0.0000000000
1717675096601,337.0000000000,387.0000000000,407.0000000000,221.0000000000,58.0000000000,0.0000000000
1717675096601,335.0000000000,384.0000000000,404.0000000000,220.0000000000,58.0000000000,0.0000000000
1717675096601,333.0000000000,455.0000000000,448.0000000000,218.0000000000,57.0000000000,0.0000000000
1717675096602,332.0000000000,451.0000000000,548.0000000000,217.0000000000,57.0000000000,0.0000000000
1717675096602,329.0000000000,448.0000000000,542.0000000000,216.0000000000,57.0000000000,0.0000000000
1717675096602,327.0000000000,443.0000000000,536.0000000000,215.0000000000,57.0000000000,0.0000000000
1717675096602,324.0000000000,439.0000000000,532.0000000000,212.0000000000,56.0000000000,0.0000000000
1717675096603,323.0000000000,435.0000000000,527.0000000000,211.0000000000,56.0000000000,0.0000000000
1717675096603,321.0000000000,432.0000000000,521.0000000000,210.0000000000,56.0000000000,0.0000000000
1717675096625,319.0000000000,428.0000000000,516.0000000000,209.0000000000,56.0000000000,0.0000000000
1717675096626,317.0000000000,423.0000000000,513.0000000000,207.0000000000,56.0000000000,0.0000000000
1717675096626,315.0000000000,420.0000000000,508.0000000000,207.0000000000,56.0000000000,0.0000000000
1717675096627,313.0000000000,418.0000000000,504.0000000000,205.0000000000,56.0000000000,0.0000000000
1717675096627,311.0000000000,415.0000000000,499.0000000000,204.0000000000,55.0000000000,0.0000000000
1717675096627,310.0000000000,412.0000000000,496.0000000000,204.0000000000,63.0000000000,0.0000000000
1717675096627,307.0000000000,408.0000000000,492.0000000000,201.0000000000,62.0000000000,0.0000000000
1717675096627,305.0000000000,405.0000000000,487.0000000000,199.0000000000,62.0000000000,0.0000000000
1717675096627,304.0000000000,401.0000000000,483.0000000000,199.0000000000,61.0000000000,0.0000000000
1717675096627,302.0000000000,399.0000000000,480.0000000000,198.0000000000,60.0000000000,0.0000000000
1717675096628,300.0000000000,395.0000000000,476.0000000000,196.0000000000,60.0000000000,0.0000000000
1717675096628,297.0000000000,393.0000000000,472.0000000000,195.0000000000,60.0000000000,0.0000000000
1717675096628,295.0000000000,390.0000000000,468.0000000000,195.0000000000,59.0000000000,0.0000000000
1717675096644,295.0000000000,387.0000000000,465.0000000000,193.0000000000,60.0000000000,0.0000000000
1717675096645,292.0000000000,384.0000000000,461.0000000000,192.0000000000,59.0000000000,0.0000000000
1717675096645,291.0000000000,382.0000000000,457.0000000000,192.0000000000,59.0000000000,0.0000000000
1717675096646,289.0000000000,379.0000000000,454.0000000000,190.0000000000,57.0000000000,0.0000000000
1717675096646,287.0000000000,376.0000000000,451.0000000000,189.0000000000,57.0000000000,0.0000000000
1717675096646,286.0000000000,372.0000000000,448.0000000000,188.0000000000,57.0000000000,0.0000000000
1717675096646,284.0000000000,371.0000000000,443.0000000000,187.0000000000,57.0000000000,0.0000000000
1717675096646,283.0000000000,368.0000000000,440.0000000000,186.0000000000,56.0000000000,0.0000000000
1717675096646,280.0000000000,365.0000000000,437.0000000000,185.0000000000,56.0000000000,0.0000000000
1717675096664,280.0000000000,363.0000000000,484.0000000000,184.0000000000,56.0000000000,0.0000000000
1717675096665,278.0000000000,364.0000000000,567.0000000000,183.0000000000,56.0000000000,0.0000000000
1717675096665,275.0000000000,361.0000000000,560.0000000000,182.0000000000,56.0000000000,0.0000000000
1717675096665,274.0000000000,359.0000000000,555.0000000000,181.0000000000,55.0000000000,0.0000000000
1717675096665,272.0000000000,355.0000000000,551.0000000000,179.0000000000,55.0000000000,0.0000000000
1717675096665,271.0000000000,354.0000000000,544.0000000000,179.0000000000,54.0000000000,0.0000000000
1717675096665,270.0000000000,352.0000000000,540.0000000000,178.0000000000,54.0000000000,0.0000000000
1717675096665,268.0000000000,350.0000000000,534.0000000000,177.0000000000,54.0000000000,0.0000000000
1717675096666,267.0000000000,348.0000000000,530.0000000000,176.0000000000,54.0000000000,0.0000000000
1717675096666,264.0000000000,345.0000000000,526.0000000000,175.0000000000,53.0000000000,0.0000000000
1717675096666,322.0000000000,354.0000000000,520.0000000000,174.0000000000,52.0000000000,0.0000000000
1717675096682,319.0000000000,352.0000000000,516.0000000000,173.0000000000,52.0000000000,0.0000000000
1717675096683,344.0000000000,363.0000000000,513.0000000000,172.0000000000,52.0000000000,0.0000000000
1717675096683,374.0000000000,428.0000000000,508.0000000000,171.0000000000,51.0000000000,0.0000000000
1717675096683,370.0000000000,424.0000000000,504.0000000000,170.0000000000,51.0000000000,0.0000000000
1717675096684,367.0000000000,421.0000000000,499.0000000000,230.0000000000,99.0000000000,0.0000000000
1717675096684,364.0000000000,417.0000000000,496.0000000000,226.0000000000,99.0000000000,0.0000000000
1717675096684,359.0000000000,448.0000000000,492.0000000000,224.0000000000,98.0000000000,0.0000000000
1717675096684,358.0000000000,481.0000000000,487.0000000000,223.0000000000,97.0000000000,0.0000000000
1717675096685,355.0000000000,476.0000000000,483.0000000000,221.0000000000,96.0000000000,0.0000000000
1717675096685,352.0000000000,472.0000000000,480.0000000000,220.0000000000,96.0000000000,0.0000000000
1717675096685,349.0000000000,467.0000000000,476.0000000000,217.0000000000,95.0000000000,0.0000000000
1717675096700,347.0000000000,463.0000000000,534.0000000000,216.0000000000,95.0000000000,0.0000000000
1717675096701,344.0000000000,461.0000000000,528.0000000000,216.0000000000,94.0000000000,0.0000000000
1717675096701,342.0000000000,543.0000000000,524.0000000000,214.0000000000,93.0000000000,0.0000000000
1717675096701,339.0000000000,536.0000000000,519.0000000000,220.0000000000,95.0000000000,0.0000000000
1717675096701,336.0000000000,532.0000000000,513.0000000000,219.0000000000,94.0000000000,0.0000000000
1717675096701,334.0000000000,527.0000000000,509.0000000000,217.0000000000,94.0000000000,0.0000000000
1717675096701,332.0000000000,603.0000000000,505.0000000000,216.0000000000,94.0000000000,0.0000000000
1717675096701,329.0000000000,593.0000000000,500.0000000000,214.0000000000,92.0000000000,0.0000000000
1717675096702,378.0000000000,588.0000000000,496.0000000000,212.0000000000,92.0000000000,0.0000000000
1717675096716,413.0000000000,583.0000000000,492.0000000000,283.0000000000,91.0000000000,0.0000000000
1717675096716,408.0000000000,575.0000000000,487.0000000000,279.0000000000,91.0000000000,0.0000000000
1717675096716,404.0000000000,571.0000000000,484.0000000000,276.0000000000,89.0000000000,0.0000000000
1717675096717,401.0000000000,564.0000000000,480.0000000000,275.0000000000,89.0000000000,0.0000000000
1717675096717,398.0000000000,560.0000000000,476.0000000000,272.0000000000,88.0000000000,0.0000000000
1717675096717,395.0000000000,555.0000000000,472.0000000000,270.0000000000,88.0000000000,0.0000000000
1717675096717,391.0000000000,550.0000000000,468.0000000000,268.0000000000,88.0000000000,0.0000000000
1717675096717,387.0000000000,543.0000000000,465.0000000000,266.0000000000,87.0000000000,0.0000000000
1717675096733,385.0000000000,540.0000000000,461.0000000000,263.0000000000,87.0000000000,0.0000000000
1717675096734,382.0000000000,536.0000000000,457.0000000000,263.0000000000,87.0000000000,0.0000000000
1717675096734,379.0000000000,530.0000000000,455.0000000000,261.0000000000,86.0000000000,0.0000000000
1717675096735,376.0000000000,525.0000000000,451.0000000000,259.0000000000,85.0000000000,0.0000000000
1717675096735,374.0000000000,521.0000000000,448.0000000000,257.0000000000,85.0000000000,0.0000000000
1717675096735,370.0000000000,516.0000000000,444.0000000000,255.0000000000,83.0000000000,0.0000000000
1717675096735,368.0000000000,512.0000000000,440.0000000000,254.0000000000,83.0000000000,0.0000000000
1717675096737,364.0000000000,508.0000000000,438.0000000000,252.0000000000,85.0000000000,0.0000000000
1717675096738,362.0000000000,504.0000000000,434.0000000000,251.0000000000,84.0000000000,0.0000000000
1717675096738,359.0000000000,499.0000000000,431.0000000000,248.0000000000,83.0000000000,0.0000000000
1717675096739,357.0000000000,495.0000000000,428.0000000000,248.0000000000,83.0000000000,0.0000000000
1717675096761,354.0000000000,491.0000000000,424.0000000000,246.0000000000,83.0000000000,0.0000000000
1717675096762,352.0000000000,487.0000000000,422.0000000000,244.0000000000,83.0000000000,0.0000000000
1717675096762,348.0000000000,483.0000000000,418.0000000000,242.0000000000,82.0000000000,0.0000000000
1717675096762,346.0000000000,480.0000000000,415.0000000000,241.0000000000,81.0000000000,0.0000000000
1717675096762,344.0000000000,476.0000000000,413.0000000000,239.0000000000,81.0000000000,0.0000000000
1717675096762,342.0000000000,472.0000000000,409.0000000000,238.0000000000,81.0000000000,0.0000000000
1717675096762,412.0000000000,499.0000000000,407.0000000000,236.0000000000,79.0000000000,0.0000000000
1717675096762,408.0000000000,494.0000000000,404.0000000000,235.0000000000,79.0000000000,0.0000000000
1717675096763,404.0000000000,489.0000000000,419.0000000000,232.0000000000,79.0000000000,0.0000000000
1717675096763,401.0000000000,484.0000000000,415.0000000000,231.0000000000,79.0000000000,0.0000000000
1717675096763,398.0000000000,523.0000000000,412.0000000000,230.0000000000,78.0000000000,0.0000000000
1717675096763,394.0000000000,517.0000000000,409.0000000000,228.0000000000,77.0000000000,0.0000000000
1717675096763,391.0000000000,512.0000000000,408.0000000000,227.0000000000,77.0000000000,0.0000000000
1717675096783,387.0000000000,507.0000000000,403.0000000000,225.0000000000,76.0000000000,0.0000000000
1717675096784,384.0000000000,504.0000000000,399.0000000000,224.0000000000,76.0000000000,0.0000000000
1717675096784,382.0000000000,498.0000000000,398.0000000000,223.0000000000,76.0000000000,0.0000000000
1717675096784,379.0000000000,494.0000000000,396.0000000000,221.0000000000,75.0000000000,0.0000000000
1717675096784,376.0000000000,489.0000000000,391.0000000000,220.0000000000,75.0000000000,0.0000000000
1717675096784,372.0000000000,486.0000000000,390.0000000000,219.0000000000,76.0000000000,0.0000000000
1717675096784,370.0000000000,482.0000000000,502.0000000000,217.0000000000,77.0000000000,0.0000000000
1717675096785,367.0000000000,478.0000000000,516.0000000000,216.0000000000,76.0000000000,0.0000000000
1717675096785,364.0000000000,472.0000000000,511.0000000000,214.0000000000,76.0000000000,0.0000000000
1717675096785,361.0000000000,471.0000000000,506.0000000000,213.0000000000,76.0000000000,0.0000000000
1717675096785,359.0000000000,466.0000000000,501.0000000000,211.0000000000,75.0000000000,0.0000000000
1717675096801,356.0000000000,462.0000000000,497.0000000000,210.0000000000,74.0000000000,0.0000000000
1717675096802,353.0000000000,458.0000000000,493.0000000000,209.0000000000,73.0000000000,0.0000000000
1717675096802,351.0000000000,455.0000000000,489.0000000000,215.0000000000,73.0000000000,0.0000000000
1717675096802,348.0000000000,452.0000000000,484.0000000000,216.0000000000,73.0000000000,0.0000000000
1717675096802,345.0000000000,448.0000000000,481.0000000000,214.0000000000,73.0000000000,0.0000000000
1717675096802,344.0000000000,445.0000000000,477.0000000000,212.0000000000,71.0000000000,0.0000000000
1717675096802,340.0000000000,442.0000000000,472.0000000000,211.0000000000,71.0000000000,0.0000000000
1717675096802,338.0000000000,439.0000000000,468.0000000000,209.0000000000,71.0000000000,0.0000000000
1717675096802,335.0000000000,435.0000000000,465.0000000000,207.0000000000,71.0000000000,0.0000000000
1717675096816,334.0000000000,432.0000000000,462.0000000000,207.0000000000,71.0000000000,0.0000000000
1717675096817,332.0000000000,428.0000000000,504.0000000000,206.0000000000,70.0000000000,0.0000000000
1717675096817,328.0000000000,425.0000000000,498.0000000000,204.0000000000,70.0000000000,0.0000000000
1717675096817,327.0000000000,423.0000000000,493.0000000000,203.0000000000,69.0000000000,0.0000000000
1717675096817,324.0000000000,419.0000000000,489.0000000000,201.0000000000,68.0000000000,0.0000000000
1717675096817,323.0000000000,415.0000000000,486.0000000000,199.0000000000,68.0000000000,0.0000000000
1717675096818,319.0000000000,414.0000000000,481.0000000000,199.0000000000,67.0000000000,0.0000000000
1717675096818,318.0000000000,411.0000000000,477.0000000000,198.0000000000,67.0000000000,0.0000000000
1717675096818,316.0000000000,441.0000000000,473.0000000000,196.0000000000,67.0000000000,0.0000000000
1717675096835,314.0000000000,437.0000000000,469.0000000000,195.0000000000,67.0000000000,0.0000000000
1717675096836,312.0000000000,434.0000000000,465.0000000000,195.0000000000,66.0000000000,0.0000000000
1717675096836,309.0000000000,430.0000000000,461.0000000000,193.0000000000,66.0000000000,0.0000000000
1717675096836,307.0000000000,426.0000000000,458.0000000000,192.0000000000,65.0000000000,0.0000000000
1717675096837,305.0000000000,423.0000000000,454.0000000000,191.0000000000,65.0000000000,0.0000000000
1717675096837,304.0000000000,420.0000000000,451.0000000000,260.0000000000,65.0000000000,0.0000000000
1717675096837,302.0000000000,415.0000000000,447.0000000000,280.0000000000,64.0000000000,0.0000000000
1717675096837,300.0000000000,412.0000000000,444.0000000000,278.0000000000,64.0000000000,0.0000000000
1717675096838,297.0000000000,409.0000000000,440.0000000000,275.0000000000,63.0000000000,0.0000000000
1717675096838,295.0000000000,408.0000000000,436.0000000000,274.0000000000,63.0000000000,0.0000000000
1717675096838,294.0000000000,403.0000000000,433.0000000000,271.0000000000,63.0000000000,0.0000000000
1717675096852,291.0000000000,400.0000000000,431.0000000000,270.0000000000,63.0000000000,0.0000000000
1717675096853,290.0000000000,398.0000000000,427.0000000000,268.0000000000,63.0000000000,0.0000000000
1717675096853,287.0000000000,396.0000000000,423.0000000000,266.0000000000,62.0000000000,0.0000000000
1717675096853,286.0000000000,391.0000000000,420.0000000000,263.0000000000,61.0000000000,0.0000000000
1717675096853,284.0000000000,390.0000000000,417.0000000000,262.0000000000,62.0000000000,0.0000000000
1717675096854,283.0000000000,387.0000000000,415.0000000000,260.0000000000,61.0000000000,0.0000000000
1717675096854,280.0000000000,385.0000000000,411.0000000000,259.0000000000,60.0000000000,0.0000000000
1717675096855,279.0000000000,382.0000000000,408.0000000000,256.0000000000,60.0000000000,0.0000000000
1717675096855,278.0000000000,379.0000000000,406.0000000000,255.0000000000,60.0000000000,0.0000000000
1717675096868,287.0000000000,376.0000000000,455.0000000000,253.0000000000,60.0000000000,0.0000000000
1717675096869,286.0000000000,374.0000000000,449.0000000000,252.0000000000,59.0000000000,0.0000000000
1717675096869,283.0000000000,371.0000000000,446.0000000000,250.0000000000,59.0000000000,0.0000000000
1717675096869,280.0000000000,369.0000000000,441.0000000000,248.0000000000,59.0000000000,0.0000000000
1717675096869,279.0000000000,367.0000000000,439.0000000000,246.0000000000,58.0000000000,0.0000000000
1717675096870,277.0000000000,364.0000000000,435.0000000000,244.0000000000,57.0000000000,0.0000000000
1717675096870,275.0000000000,413.0000000000,431.0000000000,243.0000000000,57.0000000000,0.0000000000
1717675096870,273.0000000000,408.0000000000,427.0000000000,241.0000000000,57.0000000000,0.0000000000
1717675096884,271.0000000000,405.0000000000,423.0000000000,240.0000000000,56.0000000000,0.0000000000
1717675096885,270.0000000000,401.0000000000,420.0000000000,239.0000000000,56.0000000000,0.0000000000
1717675096885,268.0000000000,399.0000000000,417.0000000000,238.0000000000,56.0000000000,0.0000000000
