timestamp,Channel 1,Channel 2,Channel 3,Channel 4,Channel 5,Channel 6
1717675235616,6.0000000000,0.0000000000,0.0000000000,133.0000000000,38.0000000000,0.0000000000
1717675235616,6.0000000000,0.0000000000,0.0000000000,132.0000000000,44.0000000000,0.0000000000
1717675235616,6.0000000000,0.0000000000,0.0000000000,131.0000000000,65.0000000000,0.0000000000
1717675235617,6.0000000000,0.0000000000,0.0000000000,131.0000000000,64.0000000000,0.0000000000
1717675235617,5.0000000000,0.0000000000,0.0000000000,130.0000000000,64.0000000000,0.0000000000
1717675235617,5.0000000000,0.0000000000,0.0000000000,129.0000000000,63.0000000000,0.0000000000
1717675235617,6.0000000000,0.0000000000,0.0000000000,129.0000000000,63.0000000000,0.0000000000
1717675235617,6.0000000000,0.0000000000,0.0000000000,127.0000000000,63.0000000000,0.0000000000
1717675235617,6.0000000000,0.0000000000,0.0000000000,127.0000000000,63.0000000000,0.0000000000
1717675235617,6.0000000000,0.0000000000,0.0000000000,127.0000000000,63.0000000000,0.0000000000
1717675235617,6.0000000000,0.0000000000,0.0000000000,127.0000000000,62.0000000000,0.0000000000
1717675235617,6.0000000000,0.0000000000,0.0000000000,127.0000000000,62.0000000000,0.0000000000
1717675235617,6.0000000000,0.0000000000,0.0000000000,126.0000000000,61.0000000000,0.0000000000
1717675235617,6.0000000000,0.0000000000,0.0000000000,126.0000000000,61.0000000000,0.0000000000
1717675235618,6.0000000000,0.0000000000,0.0000000000,124.0000000000,61.0000000000,0.0000000000
1717675235631,6.0000000000,0.0000000000,0.0000000000,124.0000000000,60.0000000000,0.0000000000
1717675235632,6.0000000000,0.0000000000,0.0000000000,124.0000000000,60.0000000000,0.0000000000
1717675235632,6.0000000000,0.0000000000,0.0000000000,124.0000000000,67.0000000000,0.0000000000
1717675235632,6.0000000000,0.0000000000,0.0000000000,123.0000000000,66.0000000000,0.0000000000
1717675235632,6.0000000000,0.0000000000,0.0000000000,123.0000000000,66.0000000000,0.0000000000
1717675235633,6.0000000000,0.0000000000,0.0000000000,121.0000000000,65.0000000000,0.0000000000
1717675235633,6.0000000000,0.0000000000,0.0000000000,121.0000000000,65.0000000000,0.0000000000
1717675235633,6.0000000000,0.0000000000,0.0000000000,120.0000000000,65.0000000000,0.0000000000
1717675235633,6.0000000000,0.0000000000,0.0000000000,120.0000000000,65.0000000000,0.0000000000
1717675235633,6.0000000000,0.0000000000,0.0000000000,120.0000000000,65.0000000000,0.0000000000
1717675235633,6.0000000000,0.0000000000,0.0000000000,119.0000000000,64.0000000000,0.0000000000
1717675235633,6.0000000000,0.0000000000,0.0000000000,119.0000000000,63.0000000000,0.0000000000
1717675235649,6.0000000000,0.0000000000,0.0000000000,118.0000000000,63.0000000000,0.0000000000
1717675235650,7.0000000000,0.0000000000,0.0000000000,118.0000000000,63.0000000000,0.0000000000
1717675235651,7.0000000000,0.0000000000,0.0000000000,117.0000000000,63.0000000000,0.0000000000
1717675235651,7.0000000000,0.0000000000,0.0000000000,116.0000000000,62.0000000000,0.0000000000
1717675235651,6.0000000000,0.0000000000,0.0000000000,115.0000000000,62.0000000000,0.0000000000
1717675235651,6.0000000000,0.0000000000,0.0000000000,115.0000000000,62.0000000000,0.0000000000
1717675235651,6.0000000000,0.0000000000,0.0000000000,115.0000000000,62.0000000000,0.0000000000
1717675235651,7.0000000000,0.0000000000,0.0000000000,115.0000000000,61.0000000000,0.0000000000
1717675235651,6.0000000000,0.0000000000,0.0000000000,113.0000000000,61.0000000000,0.0000000000
1717675235651,6.0000000000,0.0000000000,0.0000000000,113.0000000000,61.0000000000,0.0000000000
1717675235651,6.0000000000,0.0000000000,0.0000000000,113.0000000000,60.0000000000,0.0000000000
1717675235651,6.0000000000,0.0000000000,0.0000000000,112.0000000000,60.0000000000,0.0000000000
1717675235652,6.0000000000,0.0000000000,0.0000000000,112.0000000000,60.0000000000,0.0000000000
1717675235652,6.0000000000,0.0000000000,0.0000000000,112.0000000000,60.0000000000,0.0000000000
1717675235652,7.0000000000,0.0000000000,0.0000000000,111.0000000000,60.0000000000,0.0000000000
1717675235674,6.0000000000,0.0000000000,0.0000000000,111.0000000000,59.0000000000,0.0000000000
1717675235675,6.0000000000,0.0000000000,0.0000000000,110.0000000000,59.0000000000,0.0000000000
1717675235675,7.0000000000,0.0000000000,0.0000000000,110.0000000000,59.0000000000,0.0000000000
1717675235676,6.0000000000,0.0000000000,0.0000000000,109.0000000000,59.0000000000,0.0000000000
1717675235676,6.0000000000,0.0000000000,0.0000000000,109.0000000000,58.0000000000,0.0000000000
1717675235676,6.0000000000,0.0000000000,0.0000000000,108.0000000000,57.0000000000,0.0000000000
1717675235676,6.0000000000,0.0000000000,0.0000000000,108.0000000000,58.0000000000,0.0000000000
1717675235677,7.0000000000,0.0000000000,0.0000000000,108.0000000000,65.0000000000,0.0000000000
1717675235677,7.0000000000,0.0000000000,0.0000000000,107.0000000000,65.0000000000,0.0000000000
1717675235677,6.0000000000,0.0000000000,0.0000000000,107.0000000000,63.0000000000,0.0000000000
1717675235677,6.0000000000,0.0000000000,0.0000000000,105.0000000000,63.0000000000,0.0000000000
1717675235678,6.0000000000,0.0000000000,0.0000000000,105.0000000000,63.0000000000,0.0000000000
1717675235678,6.0000000000,0.0000000000,0.0000000000,105.0000000000,63.0000000000,0.0000000000
1717675235678,6.0000000000,0.0000000000,0.0000000000,104.0000000000,63.0000000000,0.0000000000
1717675235678,7.0000000000,0.0000000000,0.0000000000,103.0000000000,63.0000000000,0.0000000000
1717675235679,6.0000000000,0.0000000000,0.0000000000,103.0000000000,62.0000000000,0.0000000000
1717675235679,6.0000000000,0.0000000000,0.0000000000,103.0000000000,62.0000000000,0.0000000000
1717675235679,6.0000000000,0.0000000000,0.0000000000,103.0000000000,62.0000000000,0.0000000000
1717675235697,6.0000000000,0.0000000000,0.0000000000,103.0000000000,61.0000000000,0.0000000000
1717675235698,6.0000000000,0.0000000000,0.0000000000,102.0000000000,61.0000000000,0.0000000000
1717675235698,6.0000000000,0.0000000000,0.0000000000,102.0000000000,61.0000000000,0.0000000000
1717675235698,6.0000000000,0.0000000000,0.0000000000,101.0000000000,60.0000000000,0.0000000000
1717675235698,6.0000000000,0.0000000000,0.0000000000,100.0000000000,60.0000000000,0.0000000000
1717675235698,6.0000000000,0.0000000000,0.0000000000,100.0000000000,60.0000000000,0.0000000000
1717675235698,6.0000000000,0.0000000000,0.0000000000,99.0000000000,60.0000000000,0.0000000000
1717675235698,6.0000000000,0.0000000000,0.0000000000,99.0000000000,60.0000000000,0.0000000000
1717675235698,6.0000000000,0.0000000000,0.0000000000,99.0000000000,59.0000000000,0.0000000000
1717675235699,6.0000000000,0.0000000000,0.0000000000,99.0000000000,59.0000000000,0.0000000000
1717675235699,6.0000000000,0.0000000000,0.0000000000,99.0000000000,59.0000000000,0.0000000000
1717675235699,6.0000000000,0.0000000000,0.0000000000,97.0000000000,58.0000000000,0.0000000000
1717675235699,6.0000000000,0.0000000000,0.0000000000,98.0000000000,58.0000000000,0.0000000000
1717675235699,6.0000000000,0.0000000000,0.0000000000,97.0000000000,57.0000000000,0.0000000000
1717675235699,6.0000000000,0.0000000000,0.0000000000,96.0000000000,57.0000000000,0.0000000000
1717675235699,6.0000000000,0.0000000000,0.0000000000,96.0000000000,57.0000000000,0.0000000000
1717675235713,6.0000000000,0.0000000000,0.0000000000,96.0000000000,57.0000000000,0.0000000000
1717675235714,6.0000000000,0.0000000000,0.0000000000,96.0000000000,56.0000000000,0.0000000000
1717675235714,5.0000000000,0.0000000000,0.0000000000,96.0000000000,57.0000000000,0.0000000000
1717675235714,5.0000000000,0.0000000000,0.0000000000,95.0000000000,56.0000000000,0.0000000000
1717675235714,6.0000000000,0.0000000000,0.0000000000,94.0000000000,56.0000000000,0.0000000000
1717675235714,6.0000000000,0.0000000000,0.0000000000,94.0000000000,56.0000000000,0.0000000000
1717675235714,6.0000000000,0.0000000000,0.0000000000,94.0000000000,56.0000000000,0.0000000000
1717675235714,6.0000000000,0.0000000000,0.0000000000,94.0000000000,55.0000000000,0.0000000000
1717675235714,6.0000000000,0.0000000000,0.0000000000,93.0000000000,56.0000000000,0.0000000000
1717675235714,6.0000000000,0.0000000000,0.0000000000,92.0000000000,56.0000000000,0.0000000000
1717675235715,6.0000000000,0.0000000000,0.0000000000,92.0000000000,55.0000000000,0.0000000000
1717675235715,6.0000000000,0.0000000000,0.0000000000,92.0000000000,55.0000000000,0.0000000000
1717675235715,6.0000000000,0.0000000000,0.0000000000,92.0000000000,54.0000000000,0.0000000000
1717675235727,6.0000000000,0.0000000000,0.0000000000,92.0000000000,54.0000000000,0.0000000000
1717675235728,6.0000000000,0.0000000000,0.0000000000,91.0000000000,54.0000000000,0.0000000000
1717675235728,6.0000000000,0.0000000000,0.0000000000,91.0000000000,54.0000000000,0.0000000000
1717675235728,6.0000000000,0.0000000000,0.0000000000,91.0000000000,54.0000000000,0.0000000000
1717675235728,6.0000000000,0.0000000000,0.0000000000,90.0000000000,53.0000000000,0.0000000000
1717675235728,6.0000000000,0.0000000000,0.0000000000,89.0000000000,53.0000000000,0.0000000000
1717675235728,6.0000000000,0.0000000000,0.0000000000,89.0000000000,53.0000000000,0.0000000000
1717675235728,6.0000000000,0.0000000000,0.0000000000,88.0000000000,52.0000000000,0.0000000000
1717675235728,6.0000000000,0.0000000000,0.0000000000,88.0000000000,52.0000000000,0.0000000000
1717675235728,6.0000000000,0.0000000000,0.0000000000,88.0000000000,51.0000000000,0.0000000000
1717675235729,6.0000000000,0.0000000000,0.0000000000,88.0000000000,52.0000000000,0.0000000000
1717675235729,6.0000000000,0.0000000000,0.0000000000,88.0000000000,51.0000000000,0.0000000000
1717675235741,5.0000000000,0.0000000000,0.0000000000,88.0000000000,51.0000000000,0.0000000000
1717675235744,7.0000000000,0.0000000000,0.0000000000,87.0000000000,51.0000000000,0.0000000000
1717675235744,7.0000000000,0.0000000000,0.0000000000,86.0000000000,51.0000000000,0.0000000000
1717675235745,7.0000000000,0.0000000000,0.0000000000,86.0000000000,50.0000000000,0.0000000000
1717675235746,7.0000000000,0.0000000000,0.0000000000,86.0000000000,50.0000000000,0.0000000000
1717675235746,6.0000000000,0.0000000000,0.0000000000,86.0000000000,51.0000000000,0.0000000000
1717675235746,7.0000000000,0.0000000000,0.0000000000,85.0000000000,50.0000000000,0.0000000000
1717675235746,6.0000000000,0.0000000000,0.0000000000,85.0000000000,50.0000000000,0.0000000000
1717675235746,6.0000000000,0.0000000000,0.0000000000,84.0000000000,49.0000000000,0.0000000000
1717675235747,6.0000000000,0.0000000000,0.0000000000,84.0000000000,49.0000000000,0.0000000000
1717675235747,6.0000000000,0.0000000000,0.0000000000,83.0000000000,49.0000000000,0.0000000000
1717675235747,6.0000000000,0.0000000000,0.0000000000,83.0000000000,49.0000000000,0.0000000000
1717675235747,6.0000000000,0.0000000000,0.0000000000,83.0000000000,48.0000000000,0.0000000000
1717675235765,6.0000000000,0.0000000000,0.0000000000,83.0000000000,48.0000000000,0.0000000000
1717675235766,6.0000000000,0.0000000000,0.0000000000,83.0000000000,48.0000000000,0.0000000000
1717675235766,6.0000000000,0.0000000000,0.0000000000,82.0000000000,48.0000000000,0.0000000000
1717675235766,6.0000000000,0.0000000000,0.0000000000,82.0000000000,48.0000000000,0.0000000000
1717675235766,7.0000000000,0.0000000000,0.0000000000,81.0000000000,48.0000000000,0.0000000000
1717675235767,7.0000000000,0.0000000000,0.0000000000,81.0000000000,48.0000000000,0.0000000000
1717675235767,7.0000000000,0.0000000000,0.0000000000,81.0000000000,47.0000000000,0.0000000000
1717675235767,7.0000000000,0.0000000000,0.0000000000,80.0000000000,47.0000000000,0.0000000000
1717675235767,6.0000000000,0.0000000000,0.0000000000,80.0000000000,47.0000000000,0.0000000000
1717675235767,6.0000000000,0.0000000000,0.0000000000,79.0000000000,47.0000000000,0.0000000000
1717675235768,6.0000000000,0.0000000000,0.0000000000,79.0000000000,47.0000000000,0.0000000000
1717675235768,6.0000000000,0.0000000000,0.0000000000,79.0000000000,47.0000000000,0.0000000000
1717675235768,6.0000000000,0.0000000000,0.0000000000,79.0000000000,46.0000000000,0.0000000000
1717675235768,6.0000000000,0.0000000000,0.0000000000,79.0000000000,46.0000000000,0.0000000000
1717675235768,6.0000000000,0.0000000000,0.0000000000,78.0000000000,46.0000000000,0.0000000000
1717675235768,6.0000000000,0.0000000000,0.0000000000,78.0000000000,46.0000000000,0.0000000000
1717675235781,6.0000000000,0.0000000000,0.0000000000,78.0000000000,46.0000000000,0.0000000000
1717675235782,6.0000000000,0.0000000000,0.0000000000,78.0000000000,45.0000000000,0.0000000000
1717675235782,6.0000000000,0.0000000000,0.0000000000,78.0000000000,45.0000000000,0.0000000000
1717675235782,6.0000000000,0.0000000000,0.0000000000,76.0000000000,45.0000000000,0.0000000000
1717675235782,7.0000000000,0.0000000000,0.0000000000,76.0000000000,44.0000000000,0.0000000000
1717675235782,7.0000000000,0.0000000000,0.0000000000,76.0000000000,44.0000000000,0.0000000000
1717675235782,7.0000000000,0.0000000000,0.0000000000,76.0000000000,44.0000000000,0.0000000000
1717675235782,7.0000000000,0.0000000000,0.0000000000,76.0000000000,44.0000000000,0.0000000000
1717675235782,7.0000000000,0.0000000000,0.0000000000,76.0000000000,44.0000000000,0.0000000000
1717675235782,7.0000000000,0.0000000000,0.0000000000,75.0000000000,44.0000000000,0.0000000000
1717675235783,7.0000000000,0.0000000000,0.0000000000,75.0000000000,44.0000000000,0.0000000000
1717675235783,7.0000000000,0.0000000000,0.0000000000,75.0000000000,44.0000000000,0.0000000000
1717675235783,7.0000000000,0.0000000000,0.0000000000,74.0000000000,43.0000000000,0.0000000000
1717675235798,7.0000000000,0.0000000000,0.0000000000,74.0000000000,43.0000000000,0.0000000000
1717675235799,7.0000000000,0.0000000000,0.0000000000,73.0000000000,43.0000000000,0.0000000000
1717675235799,7.0000000000,0.0000000000,0.0000000000,73.0000000000,43.0000000000,0.0000000000
1717675235799,7.0000000000,0.0000000000,0.0000000000,73.0000000000,43.0000000000,0.0000000000
1717675235799,7.0000000000,0.0000000000,0.0000000000,73.0000000000,42.0000000000,0.0000000000
1717675235799,7.0000000000,0.0000000000,0.0000000000,73.0000000000,43.0000000000,0.0000000000
1717675235800,7.0000000000,0.0000000000,0.0000000000,71.0000000000,42.0000000000,0.0000000000
1717675235800,7.0000000000,0.0000000000,0.0000000000,71.0000000000,41.0000000000,0.0000000000
1717675235800,7.0000000000,0.0000000000,0.0000000000,71.0000000000,42.0000000000,0.0000000000
1717675235800,7.0000000000,0.0000000000,0.0000000000,71.0000000000,41.0000000000,0.0000000000
1717675235800,7.0000000000,0.0000000000,0.0000000000,71.0000000000,41.0000000000,0.0000000000
1717675235800,7.0000000000,0.0000000000,0.0000000000,71.0000000000,41.0000000000,0.0000000000
1717675235801,7.0000000000,0.0000000000,0.0000000000,70.0000000000,41.0000000000,0.0000000000
1717675235815,7.0000000000,0.0000000000,0.0000000000,70.0000000000,40.0000000000,0.0000000000
1717675235815,7.0000000000,0.0000000000,0.0000000000,70.0000000000,40.0000000000,0.0000000000
1717675235816,7.0000000000,0.0000000000,0.0000000000,70.0000000000,39.0000000000,0.0000000000
1717675235816,7.0000000000,0.0000000000,0.0000000000,70.0000000000,39.0000000000,0.0000000000
1717675235816,7.0000000000,0.0000000000,0.0000000000,69.0000000000,39.0000000000,0.0000000000
1717675235816,7.0000000000,0.0000000000,0.0000000000,69.0000000000,39.0000000000,0.0000000000
1717675235816,7.0000000000,0.0000000000,0.0000000000,68.0000000000,39.0000000000,0.0000000000
1717675235816,7.0000000000,0.0000000000,0.0000000000,68.0000000000,39.0000000000,0.0000000000
1717675235816,7.0000000000,0.0000000000,0.0000000000,67.0000000000,39.0000000000,0.0000000000
1717675235817,7.0000000000,0.0000000000,0.0000000000,68.0000000000,39.0000000000,0.0000000000
1717675235817,7.0000000000,0.0000000000,0.0000000000,67.0000000000,39.0000000000,0.0000000000
1717675235817,7.0000000000,0.0000000000,0.0000000000,67.0000000000,39.0000000000,0.0000000000
1717675235817,7.0000000000,0.0000000000,0.0000000000,67.0000000000,39.0000000000,0.0000000000
1717675235836,7.0000000000,0.0000000000,0.0000000000,67.0000000000,39.0000000000,0.0000000000
1717675235837,7.0000000000,0.0000000000,0.0000000000,66.0000000000,38.0000000000,0.0000000000
1717675235838,7.0000000000,0.0000000000,0.0000000000,66.0000000000,38.0000000000,0.0000000000
1717675235838,7.0000000000,0.0000000000,0.0000000000,66.0000000000,38.0000000000,0.0000000000
1717675235839,7.0000000000,0.0000000000,0.0000000000,66.0000000000,38.0000000000,0.0000000000
1717675235839,7.0000000000,0.0000000000,0.0000000000,65.0000000000,38.0000000000,0.0000000000
1717675235839,7.0000000000,0.0000000000,0.0000000000,65.0000000000,38.0000000000,0.0000000000
1717675235839,7.0000000000,0.0000000000,0.0000000000,65.0000000000,38.0000000000,0.0000000000
1717675235840,7.0000000000,0.0000000000,0.0000000000,64.0000000000,37.0000000000,0.0000000000
1717675235840,7.0000000000,0.0000000000,0.0000000000,64.0000000000,37.0000000000,0.0000000000
1717675235840,7.0000000000,0.0000000000,0.0000000000,64.0000000000,37.0000000000,0.0000000000
1717675235841,7.0000000000,0.0000000000,0.0000000000,64.0000000000,37.0000000000,0.0000000000
1717675235841,7.0000000000,0.0000000000,0.0000000000,63.0000000000,37.0000000000,0.0000000000
1717675235841,7.0000000000,0.0000000000,0.0000000000,63.0000000000,36.0000000000,0.0000000000
1717675235841,7.0000000000,0.0000000000,0.0000000000,63.0000000000,36.0000000000,0.0000000000
1717675235841,7.0000000000,0.0000000000,0.0000000000,63.0000000000,36.0000000000,24.0000000000
1717675235842,7.0000000000,0.0000000000,0.0000000000,63.0000000000,73.0000000000,33.0000000000
1717675235842,7.0000000000,0.0000000000,0.0000000000,63.0000000000,77.0000000000,33.0000000000
1717675235842,7.0000000000,0.0000000000,0.0000000000,62.0000000000,77.0000000000,32.0000000000
1717675235867,7.0000000000,0.0000000000,0.0000000000,62.0000000000,76.0000000000,32.0000000000
1717675235868,7.0000000000,0.0000000000,0.0000000000,62.0000000000,78.0000000000,32.0000000000
1717675235868,7.0000000000,0.0000000000,0.0000000000,62.0000000000,78.0000000000,31.0000000000
1717675235869,7.0000000000,0.0000000000,0.0000000000,62.0000000000,77.0000000000,31.0000000000
1717675235869,7.0000000000,0.0000000000,0.0000000000,61.0000000000,77.0000000000,31.0000000000
1717675235870,6.0000000000,0.0000000000,0.0000000000,61.0000000000,76.0000000000,31.0000000000
1717675235870,6.0000000000,0.0000000000,0.0000000000,61.0000000000,76.0000000000,31.0000000000
1717675235870,7.0000000000,0.0000000000,0.0000000000,60.0000000000,76.0000000000,31.0000000000
1717675235870,6.0000000000,0.0000000000,0.0000000000,60.0000000000,75.0000000000,31.0000000000
1717675235871,6.0000000000,0.0000000000,0.0000000000,60.0000000000,75.0000000000,31.0000000000
1717675235871,7.0000000000,0.0000000000,0.0000000000,60.0000000000,76.0000000000,31.0000000000
1717675235871,7.0000000000,0.0000000000,0.0000000000,60.0000000000,86.0000000000,31.0000000000
1717675235871,6.0000000000,0.0000000000,0.0000000000,59.0000000000,86.0000000000,30.0000000000
1717675235871,7.0000000000,0.0000000000,0.0000000000,59.0000000000,86.0000000000,30.0000000000
1717675235871,7.0000000000,0.0000000000,0.0000000000,59.0000000000,84.0000000000,30.0000000000
1717675235872,6.0000000000,0.0000000000,0.0000000000,58.0000000000,84.0000000000,30.0000000000
1717675235872,6.0000000000,0.0000000000,0.0000000000,58.0000000000,83.0000000000,30.0000000000
1717675235872,6.0000000000,0.0000000000,0.0000000000,58.0000000000,83.0000000000,29.0000000000
1717675235872,6.0000000000,0.0000000000,0.0000000000,57.0000000000,83.0000000000,31.0000000000
1717675235872,6.0000000000,0.0000000000,0.0000000000,57.0000000000,83.0000000000,75.0000000000
1717675235872,6.0000000000,0.0000000000,0.0000000000,57.0000000000,82.0000000000,84.0000000000
1717675235872,5.0000000000,0.0000000000,0.0000000000,57.0000000000,82.0000000000,83.0000000000
1717675235873,6.0000000000,0.0000000000,0.0000000000,57.0000000000,81.0000000000,83.0000000000
1717675235873,6.0000000000,0.0000000000,0.0000000000,56.0000000000,81.0000000000,82.0000000000
1717675235888,6.0000000000,0.0000000000,0.0000000000,56.0000000000,80.0000000000,81.0000000000
1717675235890,6.0000000000,0.0000000000,0.0000000000,56.0000000000,80.0000000000,81.0000000000
1717675235890,6.0000000000,0.0000000000,0.0000000000,56.0000000000,79.0000000000,81.0000000000
1717675235891,6.0000000000,0.0000000000,0.0000000000,56.0000000000,79.0000000000,80.0000000000
1717675235891,6.0000000000,0.0000000000,0.0000000000,56.0000000000,79.0000000000,79.0000000000
1717675235892,6.0000000000,0.0000000000,2.0000000000,56.0000000000,79.0000000000,79.0000000000
1717675235892,6.0000000000,0.0000000000,3.0000000000,56.0000000000,78.0000000000,79.0000000000
1717675235892,5.0000000000,0.0000000000,3.0000000000,55.0000000000,78.0000000000,78.0000000000
1717675235893,6.0000000000,0.0000000000,3.0000000000,55.0000000000,78.0000000000,79.0000000000
1717675235893,6.0000000000,0.0000000000,3.0000000000,55.0000000000,78.0000000000,78.0000000000
1717675235894,5.0000000000,0.0000000000,3.0000000000,54.0000000000,77.0000000000,78.0000000000
1717675235894,6.0000000000,0.0000000000,3.0000000000,54.0000000000,76.0000000000,78.0000000000
1717675235895,14.0000000000,0.0000000000,3.0000000000,54.0000000000,76.0000000000,77.0000000000
1717675235895,14.0000000000,0.0000000000,2.0000000000,54.0000000000,76.0000000000,76.0000000000
1717675235895,13.0000000000,0.0000000000,3.0000000000,53.0000000000,76.0000000000,76.0000000000
1717675235915,13.0000000000,0.0000000000,3.0000000000,53.0000000000,75.0000000000,76.0000000000
1717675235916,14.0000000000,0.0000000000,3.0000000000,52.0000000000,75.0000000000,76.0000000000
1717675235916,14.0000000000,0.0000000000,3.0000000000,52.0000000000,75.0000000000,75.0000000000
1717675235916,13.0000000000,0.0000000000,3.0000000000,52.0000000000,73.0000000000,75.0000000000
1717675235916,13.0000000000,0.0000000000,3.0000000000,52.0000000000,73.0000000000,73.0000000000
1717675235917,13.0000000000,0.0000000000,3.0000000000,51.0000000000,84.0000000000,73.0000000000
1717675235917,12.0000000000,0.0000000000,3.0000000000,51.0000000000,143.0000000000,73.0000000000
1717675235917,13.0000000000,0.0000000000,11.0000000000,51.0000000000,143.0000000000,73.0000000000
1717675235917,13.0000000000,0.0000000000,13.0000000000,51.0000000000,141.0000000000,71.0000000000
1717675235917,13.0000000000,0.0000000000,12.0000000000,51.0000000000,140.0000000000,71.0000000000
1717675235917,13.0000000000,0.0000000000,12.0000000000,51.0000000000,139.0000000000,71.0000000000
1717675235917,23.0000000000,0.0000000000,12.0000000000,50.0000000000,139.0000000000,71.0000000000
1717675235918,24.0000000000,0.0000000000,12.0000000000,50.0000000000,137.0000000000,71.0000000000
1717675235918,53.0000000000,0.0000000000,12.0000000000,49.0000000000,135.0000000000,71.0000000000
1717675235918,53.0000000000,0.0000000000,12.0000000000,49.0000000000,135.0000000000,70.0000000000
1717675235918,52.0000000000,0.0000000000,12.0000000000,49.0000000000,135.0000000000,70.0000000000
1717675235934,51.0000000000,1.0000000000,12.0000000000,49.0000000000,134.0000000000,70.0000000000
1717675235935,51.0000000000,6.0000000000,12.0000000000,48.0000000000,133.0000000000,68.0000000000
1717675235935,51.0000000000,6.0000000000,12.0000000000,49.0000000000,133.0000000000,69.0000000000
1717675235935,51.0000000000,6.0000000000,12.0000000000,49.0000000000,132.0000000000,67.0000000000
1717675235935,50.0000000000,6.0000000000,12.0000000000,48.0000000000,131.0000000000,67.0000000000
1717675235935,50.0000000000,6.0000000000,12.0000000000,48.0000000000,131.0000000000,68.0000000000
1717675235935,50.0000000000,6.0000000000,11.0000000000,48.0000000000,130.0000000000,67.0000000000
1717675235935,49.0000000000,6.0000000000,11.0000000000,48.0000000000,129.0000000000,67.0000000000
1717675235935,48.0000000000,6.0000000000,12.0000000000,48.0000000000,128.0000000000,66.0000000000
1717675235935,49.0000000000,6.0000000000,11.0000000000,47.0000000000,127.0000000000,66.0000000000
1717675235949,48.0000000000,6.0000000000,11.0000000000,47.0000000000,127.0000000000,65.0000000000
1717675235949,48.0000000000,6.0000000000,11.0000000000,47.0000000000,127.0000000000,65.0000000000
1717675235949,48.0000000000,6.0000000000,11.0000000000,46.0000000000,126.0000000000,65.0000000000
1717675235950,47.0000000000,6.0000000000,11.0000000000,46.0000000000,125.0000000000,64.0000000000
1717675235950,47.0000000000,6.0000000000,11.0000000000,46.0000000000,124.0000000000,65.0000000000
1717675235950,47.0000000000,6.0000000000,12.0000000000,46.0000000000,124.0000000000,63.0000000000
1717675235950,47.0000000000,5.0000000000,33.0000000000,65.0000000000,124.0000000000,63.0000000000
1717675235967,47.0000000000,6.0000000000,33.0000000000,63.0000000000,123.0000000000,63.0000000000
1717675235968,47.0000000000,5.0000000000,33.0000000000,63.0000000000,122.0000000000,63.0000000000
1717675235968,46.0000000000,6.0000000000,33.0000000000,63.0000000000,121.0000000000,63.0000000000
1717675235968,46.0000000000,5.0000000000,32.0000000000,63.0000000000,120.0000000000,62.0000000000
1717675235968,46.0000000000,5.0000000000,32.0000000000,63.0000000000,120.0000000000,62.0000000000
1717675235968,45.0000000000,5.0000000000,32.0000000000,62.0000000000,120.0000000000,62.0000000000
1717675235969,44.0000000000,6.0000000000,32.0000000000,62.0000000000,119.0000000000,61.0000000000
1717675235969,44.0000000000,5.0000000000,31.0000000000,62.0000000000,119.0000000000,61.0000000000
1717675235969,44.0000000000,4.0000000000,31.0000000000,60.0000000000,118.0000000000,61.0000000000
1717675235969,44.0000000000,4.0000000000,31.0000000000,60.0000000000,117.0000000000,60.0000000000
1717675235969,44.0000000000,4.0000000000,31.0000000000,60.0000000000,116.0000000000,60.0000000000
1717675235970,44.0000000000,5.0000000000,31.0000000000,60.0000000000,115.0000000000,60.0000000000
1717675235970,44.0000000000,5.0000000000,31.0000000000,60.0000000000,115.0000000000,60.0000000000
1717675235984,43.0000000000,4.0000000000,31.0000000000,59.0000000000,115.0000000000,135.0000000000
1717675235985,43.0000000000,4.0000000000,31.0000000000,59.0000000000,114.0000000000,135.0000000000
1717675235985,43.0000000000,5.0000000000,30.0000000000,59.0000000000,113.0000000000,133.0000000000
1717675235985,42.0000000000,4.0000000000,30.0000000000,58.0000000000,113.0000000000,132.0000000000
1717675235985,42.0000000000,4.0000000000,30.0000000000,57.0000000000,112.0000000000,131.0000000000
1717675235985,48.0000000000,4.0000000000,29.0000000000,57.0000000000,112.0000000000,130.0000000000
1717675235985,169.0000000000,82.0000000000,30.0000000000,125.0000000000,111.0000000000,129.0000000000
1717675235985,244.0000000000,140.0000000000,29.0000000000,124.0000000000,185.0000000000,127.0000000000
1717675235985,254.0000000000,137.0000000000,29.0000000000,123.0000000000,187.0000000000,127.0000000000
1717675236001,252.0000000000,135.0000000000,29.0000000000,121.0000000000,185.0000000000,126.0000000000
1717675236002,248.0000000000,135.0000000000,29.0000000000,120.0000000000,184.0000000000,126.0000000000
1717675236002,247.0000000000,134.0000000000,28.0000000000,120.0000000000,181.0000000000,124.0000000000
1717675236002,244.0000000000,133.0000000000,28.0000000000,119.0000000000,179.0000000000,124.0000000000
1717675236003,242.0000000000,132.0000000000,28.0000000000,118.0000000000,179.0000000000,123.0000000000
1717675236003,240.0000000000,131.0000000000,28.0000000000,116.0000000000,177.0000000000,121.0000000000
1717675236004,239.0000000000,130.0000000000,28.0000000000,116.0000000000,176.0000000000,120.0000000000
1717675236004,236.0000000000,129.0000000000,28.0000000000,115.0000000000,175.0000000000,120.0000000000
1717675236004,235.0000000000,127.0000000000,38.0000000000,114.0000000000,174.0000000000,119.0000000000
1717675236004,233.0000000000,127.0000000000,37.0000000000,164.0000000000,173.0000000000,119.0000000000
1717675236020,231.0000000000,126.0000000000,37.0000000000,163.0000000000,171.0000000000,117.0000000000
1717675236022,230.0000000000,126.0000000000,36.0000000000,162.0000000000,170.0000000000,117.0000000000
1717675236022,228.0000000000,124.0000000000,36.0000000000,160.0000000000,169.0000000000,115.0000000000
1717675236022,226.0000000000,124.0000000000,36.0000000000,159.0000000000,167.0000000000,115.0000000000
1717675236023,224.0000000000,123.0000000000,35.0000000000,158.0000000000,166.0000000000,114.0000000000
1717675236023,223.0000000000,121.0000000000,35.0000000000,157.0000000000,166.0000000000,114.0000000000
1717675236023,221.0000000000,121.0000000000,35.0000000000,156.0000000000,164.0000000000,113.0000000000
1717675236023,220.0000000000,120.0000000000,35.0000000000,155.0000000000,163.0000000000,112.0000000000
1717675236052,218.0000000000,120.0000000000,34.0000000000,153.0000000000,162.0000000000,112.0000000000
1717675236055,216.0000000000,118.0000000000,35.0000000000,152.0000000000,161.0000000000,111.0000000000
1717675236055,216.0000000000,118.0000000000,39.0000000000,152.0000000000,159.0000000000,110.0000000000
1717675236055,214.0000000000,116.0000000000,39.0000000000,150.0000000000,159.0000000000,109.0000000000
1717675236055,212.0000000000,116.0000000000,38.0000000000,149.0000000000,158.0000000000,108.0000000000
1717675236056,210.0000000000,115.0000000000,38.0000000000,147.0000000000,156.0000000000,108.0000000000
1717675236056,209.0000000000,115.0000000000,38.0000000000,147.0000000000,156.0000000000,107.0000000000
1717675236056,207.0000000000,113.0000000000,37.0000000000,161.0000000000,155.0000000000,106.0000000000
1717675236056,206.0000000000,113.0000000000,37.0000000000,159.0000000000,153.0000000000,105.0000000000
1717675236057,205.0000000000,112.0000000000,37.0000000000,159.0000000000,153.0000000000,105.0000000000
1717675236057,204.0000000000,112.0000000000,36.0000000000,157.0000000000,152.0000000000,103.0000000000
1717675236057,201.0000000000,111.0000000000,36.0000000000,156.0000000000,152.0000000000,103.0000000000
1717675236057,199.0000000000,110.0000000000,35.0000000000,156.0000000000,151.0000000000,103.0000000000
1717675236058,199.0000000000,110.0000000000,35.0000000000,154.0000000000,149.0000000000,102.0000000000
1717675236058,198.0000000000,109.0000000000,35.0000000000,152.0000000000,148.0000000000,101.0000000000
1717675236058,196.0000000000,108.0000000000,35.0000000000,152.0000000000,147.0000000000,101.0000000000
1717675236059,195.0000000000,108.0000000000,35.0000000000,151.0000000000,146.0000000000,100.0000000000
1717675236060,194.0000000000,107.0000000000,35.0000000000,149.0000000000,145.0000000000,99.0000000000
1717675236088,193.0000000000,105.0000000000,34.0000000000,148.0000000000,152.0000000000,99.0000000000
1717675236088,192.0000000000,105.0000000000,34.0000000000,147.0000000000,150.0000000000,99.0000000000
1717675236088,190.0000000000,104.0000000000,34.0000000000,147.0000000000,217.0000000000,98.0000000000
1717675236088,189.0000000000,103.0000000000,33.0000000000,145.0000000000,216.0000000000,97.0000000000
1717675236088,188.0000000000,103.0000000000,33.0000000000,144.0000000000,213.0000000000,96.0000000000
1717675236089,187.0000000000,103.0000000000,33.0000000000,143.0000000000,211.0000000000,96.0000000000
1717675236089,185.0000000000,102.0000000000,33.0000000000,143.0000000000,210.0000000000,96.0000000000
1717675236089,184.0000000000,102.0000000000,32.0000000000,142.0000000000,208.0000000000,95.0000000000
1717675236089,184.0000000000,101.0000000000,32.0000000000,141.0000000000,207.0000000000,94.0000000000
1717675236089,182.0000000000,100.0000000000,31.0000000000,140.0000000000,206.0000000000,93.0000000000
1717675236089,180.0000000000,99.0000000000,31.0000000000,139.0000000000,204.0000000000,94.0000000000
1717675236089,179.0000000000,99.0000000000,31.0000000000,138.0000000000,203.0000000000,93.0000000000
1717675236089,179.0000000000,98.0000000000,31.0000000000,137.0000000000,201.0000000000,92.0000000000
1717675236089,177.0000000000,98.0000000000,31.0000000000,135.0000000000,199.0000000000,91.0000000000
1717675236090,177.0000000000,97.0000000000,31.0000000000,135.0000000000,199.0000000000,91.0000000000
1717675236090,176.0000000000,96.0000000000,31.0000000000,152.0000000000,198.0000000000,91.0000000000
1717675236090,174.0000000000,96.0000000000,31.0000000000,150.0000000000,196.0000000000,89.0000000000
1717675236103,174.0000000000,96.0000000000,31.0000000000,148.0000000000,195.0000000000,89.0000000000
1717675236104,172.0000000000,95.0000000000,30.0000000000,147.0000000000,194.0000000000,89.0000000000
1717675236104,171.0000000000,95.0000000000,31.0000000000,147.0000000000,192.0000000000,88.0000000000
1717675236104,171.0000000000,94.0000000000,30.0000000000,145.0000000000,192.0000000000,88.0000000000
1717675236104,169.0000000000,94.0000000000,30.0000000000,144.0000000000,191.0000000000,88.0000000000
1717675236104,167.0000000000,93.0000000000,30.0000000000,143.0000000000,190.0000000000,87.0000000000
1717675236104,167.0000000000,92.0000000000,29.0000000000,143.0000000000,188.0000000000,87.0000000000
1717675236120,167.0000000000,92.0000000000,30.0000000000,142.0000000000,187.0000000000,86.0000000000
1717675236122,166.0000000000,91.0000000000,29.0000000000,141.0000000000,186.0000000000,86.0000000000
1717675236122,164.0000000000,91.0000000000,29.0000000000,140.0000000000,185.0000000000,85.0000000000
1717675236122,163.0000000000,90.0000000000,28.0000000000,140.0000000000,184.0000000000,84.0000000000
1717675236122,167.0000000000,89.0000000000,29.0000000000,138.0000000000,183.0000000000,84.0000000000
1717675236123,165.0000000000,89.0000000000,29.0000000000,136.0000000000,182.0000000000,83.0000000000
1717675236123,164.0000000000,88.0000000000,28.0000000000,135.0000000000,180.0000000000,83.0000000000
1717675236123,164.0000000000,88.0000000000,28.0000000000,135.0000000000,251.0000000000,83.0000000000
1717675236123,163.0000000000,88.0000000000,28.0000000000,135.0000000000,248.0000000000,82.0000000000
1717675236124,163.0000000000,87.0000000000,28.0000000000,134.0000000000,247.0000000000,81.0000000000
1717675236124,161.0000000000,87.0000000000,28.0000000000,133.0000000000,244.0000000000,81.0000000000
1717675236151,161.0000000000,86.0000000000,60.0000000000,132.0000000000,242.0000000000,80.0000000000
1717675236151,159.0000000000,85.0000000000,60.0000000000,131.0000000000,240.0000000000,80.0000000000
1717675236151,159.0000000000,85.0000000000,60.0000000000,131.0000000000,239.0000000000,79.0000000000
1717675236152,158.0000000000,84.0000000000,59.0000000000,129.0000000000,238.0000000000,79.0000000000
1717675236152,156.0000000000,84.0000000000,59.0000000000,129.0000000000,236.0000000000,79.0000000000
1717675236152,156.0000000000,83.0000000000,59.0000000000,178.0000000000,233.0000000000,78.0000000000
1717675236152,155.0000000000,83.0000000000,58.0000000000,192.0000000000,233.0000000000,78.0000000000
1717675236153,154.0000000000,120.0000000000,57.0000000000,190.0000000000,231.0000000000,78.0000000000
1717675236153,153.0000000000,119.0000000000,57.0000000000,188.0000000000,230.0000000000,77.0000000000
1717675236153,152.0000000000,118.0000000000,56.0000000000,187.0000000000,227.0000000000,76.0000000000
1717675236153,152.0000000000,117.0000000000,56.0000000000,185.0000000000,226.0000000000,76.0000000000
1717675236153,150.0000000000,116.0000000000,56.0000000000,184.0000000000,225.0000000000,76.0000000000
1717675236153,150.0000000000,115.0000000000,56.0000000000,183.0000000000,223.0000000000,75.0000000000
1717675236153,149.0000000000,114.0000000000,55.0000000000,182.0000000000,222.0000000000,75.0000000000
1717675236153,147.0000000000,113.0000000000,55.0000000000,180.0000000000,220.0000000000,75.0000000000
1717675236172,150.0000000000,112.0000000000,54.0000000000,179.0000000000,219.0000000000,74.0000000000
1717675236172,216.0000000000,112.0000000000,54.0000000000,178.0000000000,217.0000000000,73.0000000000
1717675236172,214.0000000000,112.0000000000,54.0000000000,176.0000000000,216.0000000000,73.0000000000
1717675236173,211.0000000000,111.0000000000,53.0000000000,175.0000000000,215.0000000000,71.0000000000
1717675236173,210.0000000000,110.0000000000,53.0000000000,174.0000000000,213.0000000000,71.0000000000
1717675236173,208.0000000000,109.0000000000,52.0000000000,173.0000000000,211.0000000000,71.0000000000
1717675236173,207.0000000000,108.0000000000,52.0000000000,172.0000000000,211.0000000000,71.0000000000
1717675236173,205.0000000000,108.0000000000,51.0000000000,171.0000000000,209.0000000000,71.0000000000
1717675236173,204.0000000000,107.0000000000,51.0000000000,169.0000000000,207.0000000000,71.0000000000
1717675236173,203.0000000000,106.0000000000,51.0000000000,167.0000000000,271.0000000000,70.0000000000
1717675236188,201.0000000000,105.0000000000,51.0000000000,167.0000000000,268.0000000000,70.0000000000
1717675236190,199.0000000000,104.0000000000,50.0000000000,166.0000000000,265.0000000000,69.0000000000
1717675236191,199.0000000000,103.0000000000,49.0000000000,165.0000000000,322.0000000000,69.0000000000
1717675236193,196.0000000000,103.0000000000,50.0000000000,163.0000000000,319.0000000000,68.0000000000
1717675236193,195.0000000000,103.0000000000,49.0000000000,163.0000000000,316.0000000000,67.0000000000
1717675236194,194.0000000000,102.0000000000,49.0000000000,161.0000000000,312.0000000000,67.0000000000
1717675236195,192.0000000000,102.0000000000,48.0000000000,160.0000000000,311.0000000000,67.0000000000
1717675236195,192.0000000000,101.0000000000,49.0000000000,159.0000000000,308.0000000000,67.0000000000
1717675236195,190.0000000000,100.0000000000,48.0000000000,159.0000000000,305.0000000000,66.0000000000
1717675236196,189.0000000000,99.0000000000,48.0000000000,158.0000000000,304.0000000000,65.0000000000
1717675236196,188.0000000000,99.0000000000,47.0000000000,156.0000000000,302.0000000000,65.0000000000
1717675236196,187.0000000000,98.0000000000,47.0000000000,156.0000000000,300.0000000000,65.0000000000
1717675236197,185.0000000000,97.0000000000,47.0000000000,155.0000000000,297.0000000000,65.0000000000
1717675236224,184.0000000000,97.0000000000,47.0000000000,153.0000000000,295.0000000000,64.0000000000
1717675236225,184.0000000000,96.0000000000,46.0000000000,153.0000000000,294.0000000000,64.0000000000
1717675236225,190.0000000000,96.0000000000,46.0000000000,152.0000000000,291.0000000000,63.0000000000
1717675236225,189.0000000000,96.0000000000,46.0000000000,151.0000000000,289.0000000000,63.0000000000
1717675236225,187.0000000000,95.0000000000,45.0000000000,150.0000000000,287.0000000000,63.0000000000
1717675236225,186.0000000000,94.0000000000,45.0000000000,150.0000000000,286.0000000000,63.0000000000
1717675236225,184.0000000000,93.0000000000,45.0000000000,148.0000000000,284.0000000000,63.0000000000
1717675236225,211.0000000000,92.0000000000,45.0000000000,147.0000000000,281.0000000000,62.0000000000
1717675236225,211.0000000000,92.0000000000,44.0000000000,146.0000000000,280.0000000000,62.0000000000
1717675236225,209.0000000000,92.0000000000,44.0000000000,145.0000000000,278.0000000000,61.0000000000
1717675236225,207.0000000000,91.0000000000,44.0000000000,145.0000000000,275.0000000000,61.0000000000
1717675236226,206.0000000000,91.0000000000,43.0000000000,143.0000000000,274.0000000000,60.0000000000
1717675236226,205.0000000000,89.0000000000,44.0000000000,143.0000000000,273.0000000000,60.0000000000
1717675236226,204.0000000000,89.0000000000,43.0000000000,142.0000000000,271.0000000000,60.0000000000
1717675236226,202.0000000000,89.0000000000,43.0000000000,142.0000000000,269.0000000000,60.0000000000
1717675236243,199.0000000000,88.0000000000,43.0000000000,140.0000000000,267.0000000000,59.0000000000
1717675236244,199.0000000000,88.0000000000,42.0000000000,140.0000000000,266.0000000000,59.0000000000
1717675236244,198.0000000000,88.0000000000,41.0000000000,139.0000000000,263.0000000000,59.0000000000
1717675236244,196.0000000000,87.0000000000,41.0000000000,137.0000000000,263.0000000000,59.0000000000
1717675236244,195.0000000000,87.0000000000,41.0000000000,137.0000000000,260.0000000000,58.0000000000
1717675236244,194.0000000000,87.0000000000,41.0000000000,135.0000000000,259.0000000000,58.0000000000
1717675236244,193.0000000000,87.0000000000,41.0000000000,135.0000000000,257.0000000000,57.0000000000
1717675236244,192.0000000000,86.0000000000,41.0000000000,135.0000000000,255.0000000000,57.0000000000
1717675236245,191.0000000000,85.0000000000,40.0000000000,134.0000000000,254.0000000000,57.0000000000
1717675236245,189.0000000000,84.0000000000,39.0000000000,132.0000000000,253.0000000000,56.0000000000
1717675236245,188.0000000000,83.0000000000,39.0000000000,132.0000000000,252.0000000000,56.0000000000
1717675236258,187.0000000000,83.0000000000,39.0000000000,131.0000000000,249.0000000000,56.0000000000
1717675236259,185.0000000000,83.0000000000,39.0000000000,131.0000000000,248.0000000000,56.0000000000
1717675236259,184.0000000000,83.0000000000,39.0000000000,130.0000000000,247.0000000000,55.0000000000
1717675236260,183.0000000000,82.0000000000,39.0000000000,129.0000000000,246.0000000000,55.0000000000
1717675236260,182.0000000000,81.0000000000,39.0000000000,127.0000000000,243.0000000000,55.0000000000
1717675236260,180.0000000000,81.0000000000,39.0000000000,127.0000000000,242.0000000000,55.0000000000
1717675236260,180.0000000000,81.0000000000,38.0000000000,127.0000000000,241.0000000000,54.0000000000
1717675236275,179.0000000000,80.0000000000,38.0000000000,126.0000000000,240.0000000000,54.0000000000
1717675236276,177.0000000000,79.0000000000,38.0000000000,126.0000000000,239.0000000000,54.0000000000
1717675236276,176.0000000000,79.0000000000,38.0000000000,124.0000000000,331.0000000000,53.0000000000
1717675236276,176.0000000000,79.0000000000,37.0000000000,124.0000000000,327.0000000000,52.0000000000
1717675236276,174.0000000000,79.0000000000,37.0000000000,124.0000000000,324.0000000000,52.0000000000
1717675236277,173.0000000000,78.0000000000,36.0000000000,123.0000000000,322.0000000000,51.0000000000
1717675236277,172.0000000000,78.0000000000,36.0000000000,122.0000000000,319.0000000000,52.0000000000
1717675236277,171.0000000000,77.0000000000,36.0000000000,121.0000000000,317.0000000000,51.0000000000
1717675236291,171.0000000000,77.0000000000,36.0000000000,120.0000000000,315.0000000000,51.0000000000
1717675236293,169.0000000000,76.0000000000,35.0000000000,120.0000000000,312.0000000000,51.0000000000
1717675236294,167.0000000000,76.0000000000,36.0000000000,120.0000000000,310.0000000000,51.0000000000
1717675236294,167.0000000000,76.0000000000,35.0000000000,119.0000000000,308.0000000000,51.0000000000
1717675236295,166.0000000000,75.0000000000,35.0000000000,118.0000000000,306.0000000000,51.0000000000
1717675236295,233.0000000000,75.0000000000,35.0000000000,117.0000000000,304.0000000000,50.0000000000
1717675236295,243.0000000000,73.0000000000,35.0000000000,115.0000000000,302.0000000000,50.0000000000
1717675236295,240.0000000000,73.0000000000,35.0000000000,115.0000000000,300.0000000000,49.0000000000
1717675236295,238.0000000000,73.0000000000,35.0000000000,115.0000000000,297.0000000000,49.0000000000
1717675236296,237.0000000000,73.0000000000,35.0000000000,114.0000000000,295.0000000000,49.0000000000
1717675236296,235.0000000000,72.0000000000,35.0000000000,113.0000000000,294.0000000000,49.0000000000
1717675236314,233.0000000000,137.0000000000,34.0000000000,112.0000000000,291.0000000000,48.0000000000
1717675236315,231.0000000000,135.0000000000,33.0000000000,112.0000000000,289.0000000000,48.0000000000
1717675236315,230.0000000000,135.0000000000,33.0000000000,112.0000000000,287.0000000000,48.0000000000
1717675236315,228.0000000000,134.0000000000,33.0000000000,110.0000000000,286.0000000000,48.0000000000
1717675236315,227.0000000000,133.0000000000,33.0000000000,110.0000000000,295.0000000000,47.0000000000
1717675236315,225.0000000000,132.0000000000,33.0000000000,110.0000000000,292.0000000000,47.0000000000
1717675236315,267.0000000000,131.0000000000,32.0000000000,109.0000000000,291.0000000000,47.0000000000
1717675236316,425.0000000000,130.0000000000,32.0000000000,108.0000000000,289.0000000000,46.0000000000
1717675236316,495.0000000000,129.0000000000,33.0000000000,108.0000000000,286.0000000000,47.0000000000
1717675236316,488.0000000000,127.0000000000,32.0000000000,107.0000000000,284.0000000000,47.0000000000
1717675236316,483.0000000000,127.0000000000,32.0000000000,106.0000000000,283.0000000000,48.0000000000
1717675236331,479.0000000000,137.0000000000,31.0000000000,105.0000000000,280.0000000000,47.0000000000
1717675236332,473.0000000000,135.0000000000,31.0000000000,104.0000000000,279.0000000000,47.0000000000
1717675236332,470.0000000000,135.0000000000,31.0000000000,103.0000000000,276.0000000000,47.0000000000
1717675236333,464.0000000000,134.0000000000,31.0000000000,103.0000000000,275.0000000000,47.0000000000
1717675236333,460.0000000000,134.0000000000,31.0000000000,103.0000000000,273.0000000000,46.0000000000
1717675236333,455.0000000000,132.0000000000,31.0000000000,103.0000000000,271.0000000000,46.0000000000
1717675236334,452.0000000000,131.0000000000,31.0000000000,102.0000000000,269.0000000000,45.0000000000
1717675236334,448.0000000000,130.0000000000,31.0000000000,102.0000000000,267.0000000000,46.0000000000
1717675236359,444.0000000000,129.0000000000,31.0000000000,101.0000000000,265.0000000000,45.0000000000
1717675236360,440.0000000000,129.0000000000,31.0000000000,100.0000000000,263.0000000000,45.0000000000
1717675236360,436.0000000000,127.0000000000,30.0000000000,99.0000000000,263.0000000000,44.0000000000
1717675236360,433.0000000000,127.0000000000,31.0000000000,99.0000000000,261.0000000000,44.0000000000
1717675236360,429.0000000000,126.0000000000,30.0000000000,99.0000000000,259.0000000000,44.0000000000
1717675236360,427.0000000000,126.0000000000,30.0000000000,98.0000000000,257.0000000000,44.0000000000
1717675236360,423.0000000000,125.0000000000,30.0000000000,135.0000000000,255.0000000000,44.0000000000
1717675236361,419.0000000000,124.0000000000,30.0000000000,134.0000000000,254.0000000000,43.0000000000
1717675236361,415.0000000000,123.0000000000,30.0000000000,132.0000000000,253.0000000000,43.0000000000
1717675236361,412.0000000000,122.0000000000,29.0000000000,131.0000000000,251.0000000000,43.0000000000
1717675236361,408.0000000000,121.0000000000,30.0000000000,130.0000000000,249.0000000000,43.0000000000
1717675236361,406.0000000000,120.0000000000,29.0000000000,129.0000000000,248.0000000000,42.0000000000
1717675236361,403.0000000000,120.0000000000,29.0000000000,127.0000000000,247.0000000000,44.0000000000
1717675236361,399.0000000000,119.0000000000,28.0000000000,127.0000000000,244.0000000000,44.0000000000
1717675236362,396.0000000000,118.0000000000,28.0000000000,127.0000000000,243.0000000000,44.0000000000
1717675236377,392.0000000000,117.0000000000,49.0000000000,126.0000000000,241.0000000000,44.0000000000
1717675236378,390.0000000000,116.0000000000,65.0000000000,125.0000000000,240.0000000000,43.0000000000
1717675236378,387.0000000000,115.0000000000,63.0000000000,124.0000000000,239.0000000000,43.0000000000
1717675236378,384.0000000000,115.0000000000,63.0000000000,124.0000000000,237.0000000000,43.0000000000
1717675236378,381.0000000000,114.0000000000,63.0000000000,123.0000000000,236.0000000000,43.0000000000
1717675236378,377.0000000000,113.0000000000,62.0000000000,121.0000000000,235.0000000000,42.0000000000
1717675236378,376.0000000000,113.0000000000,62.0000000000,120.0000000000,233.0000000000,41.0000000000
1717675236379,372.0000000000,112.0000000000,62.0000000000,120.0000000000,231.0000000000,41.0000000000
1717675236392,369.0000000000,111.0000000000,61.0000000000,120.0000000000,230.0000000000,41.0000000000
1717675236393,367.0000000000,111.0000000000,60.0000000000,118.0000000000,228.0000000000,40.0000000000
1717675236393,364.0000000000,110.0000000000,60.0000000000,117.0000000000,227.0000000000,40.0000000000
1717675236394,362.0000000000,109.0000000000,60.0000000000,116.0000000000,226.0000000000,39.0000000000
1717675236394,359.0000000000,187.0000000000,60.0000000000,116.0000000000,224.0000000000,39.0000000000
1717675236394,356.0000000000,184.0000000000,59.0000000000,115.0000000000,224.0000000000,39.0000000000
1717675236394,353.0000000000,182.0000000000,59.0000000000,115.0000000000,222.0000000000,39.0000000000
1717675236395,352.0000000000,180.0000000000,70.0000000000,113.0000000000,220.0000000000,39.0000000000
1717675236395,352.0000000000,179.0000000000,69.0000000000,113.0000000000,220.0000000000,39.0000000000
1717675236418,367.0000000000,179.0000000000,68.0000000000,112.0000000000,217.0000000000,41.0000000000
1717675236419,524.0000000000,186.0000000000,67.0000000000,111.0000000000,216.0000000000,39.0000000000
1717675236419,516.0000000000,184.0000000000,68.0000000000,111.0000000000,216.0000000000,39.0000000000
1717675236419,511.0000000000,185.0000000000,83.0000000000,110.0000000000,215.0000000000,39.0000000000
1717675236420,505.0000000000,252.0000000000,82.0000000000,109.0000000000,214.0000000000,39.0000000000
1717675236420,500.0000000000,248.0000000000,81.0000000000,108.0000000000,212.0000000000,39.0000000000
1717675236420,496.0000000000,247.0000000000,81.0000000000,108.0000000000,211.0000000000,39.0000000000
1717675236421,491.0000000000,244.0000000000,80.0000000000,107.0000000000,209.0000000000,39.0000000000
1717675236421,486.0000000000,242.0000000000,79.0000000000,107.0000000000,207.0000000000,39.0000000000
1717675236421,481.0000000000,240.0000000000,79.0000000000,105.0000000000,207.0000000000,38.0000000000
1717675236421,477.0000000000,239.0000000000,79.0000000000,103.0000000000,206.0000000000,39.0000000000
1717675236422,472.0000000000,237.0000000000,78.0000000000,104.0000000000,204.0000000000,38.0000000000
1717675236422,468.0000000000,235.0000000000,77.0000000000,103.0000000000,203.0000000000,38.0000000000
1717675236422,464.0000000000,233.0000000000,77.0000000000,103.0000000000,201.0000000000,38.0000000000
1717675236451,460.0000000000,231.0000000000,77.0000000000,103.0000000000,200.0000000000,38.0000000000
1717675236455,456.0000000000,231.0000000000,76.0000000000,102.0000000000,199.0000000000,37.0000000000
1717675236456,452.0000000000,229.0000000000,76.0000000000,101.0000000000,198.0000000000,36.0000000000
1717675236456,448.0000000000,227.0000000000,75.0000000000,100.0000000000,197.0000000000,37.0000000000
1717675236457,445.0000000000,226.0000000000,74.0000000000,99.0000000000,196.0000000000,36.0000000000
1717675236457,441.0000000000,224.0000000000,74.0000000000,99.0000000000,195.0000000000,36.0000000000
1717675236457,438.0000000000,223.0000000000,73.0000000000,99.0000000000,194.0000000000,36.0000000000
1717675236458,434.0000000000,222.0000000000,73.0000000000,98.0000000000,193.0000000000,36.0000000000
1717675236458,431.0000000000,220.0000000000,71.0000000000,97.0000000000,192.0000000000,35.0000000000
1717675236459,428.0000000000,219.0000000000,71.0000000000,96.0000000000,191.0000000000,35.0000000000
1717675236459,423.0000000000,216.0000000000,71.0000000000,96.0000000000,190.0000000000,46.0000000000
1717675236460,420.0000000000,216.0000000000,71.0000000000,96.0000000000,189.0000000000,89.0000000000
1717675236460,417.0000000000,215.0000000000,71.0000000000,96.0000000000,188.0000000000,88.0000000000
1717675236460,415.0000000000,213.0000000000,71.0000000000,95.0000000000,187.0000000000,88.0000000000
1717675236460,412.0000000000,211.0000000000,70.0000000000,94.0000000000,185.0000000000,87.0000000000
1717675236461,408.0000000000,210.0000000000,70.0000000000,94.0000000000,185.0000000000,86.0000000000
1717675236461,404.0000000000,209.0000000000,69.0000000000,93.0000000000,184.0000000000,86.0000000000
1717675236461,402.0000000000,207.0000000000,68.0000000000,92.0000000000,183.0000000000,84.0000000000
1717675236461,399.0000000000,206.0000000000,68.0000000000,92.0000000000,182.0000000000,84.0000000000
1717675236461,396.0000000000,205.0000000000,67.0000000000,92.0000000000,180.0000000000,83.0000000000
1717675236475,392.0000000000,204.0000000000,67.0000000000,91.0000000000,180.0000000000,83.0000000000
1717675236475,390.0000000000,203.0000000000,67.0000000000,90.0000000000,179.0000000000,83.0000000000
1717675236475,387.0000000000,201.0000000000,67.0000000000,89.0000000000,178.0000000000,82.0000000000
1717675236476,384.0000000000,199.0000000000,66.0000000000,89.0000000000,177.0000000000,81.0000000000
1717675236476,382.0000000000,199.0000000000,66.0000000000,89.0000000000,176.0000000000,81.0000000000
1717675236476,379.0000000000,198.0000000000,65.0000000000,88.0000000000,176.0000000000,80.0000000000
1717675236476,376.0000000000,196.0000000000,65.0000000000,88.0000000000,174.0000000000,131.0000000000
1717675236476,374.0000000000,195.0000000000,64.0000000000,88.0000000000,173.0000000000,129.0000000000
1717675236476,371.0000000000,194.0000000000,63.0000000000,87.0000000000,172.0000000000,129.0000000000
1717675236489,368.0000000000,193.0000000000,63.0000000000,87.0000000000,171.0000000000,127.0000000000
1717675236489,365.0000000000,192.0000000000,63.0000000000,86.0000000000,171.0000000000,127.0000000000
1717675236489,363.0000000000,190.0000000000,63.0000000000,86.0000000000,206.0000000000,126.0000000000
1717675236490,359.0000000000,190.0000000000,63.0000000000,84.0000000000,204.0000000000,125.0000000000
1717675236490,358.0000000000,188.0000000000,62.0000000000,84.0000000000,203.0000000000,124.0000000000
1717675236490,355.0000000000,188.0000000000,62.0000000000,84.0000000000,199.0000000000,123.0000000000
1717675236505,352.0000000000,185.0000000000,62.0000000000,83.0000000000,199.0000000000,122.0000000000
1717675236505,350.0000000000,190.0000000000,61.0000000000,83.0000000000,198.0000000000,121.0000000000
1717675236506,348.0000000000,283.0000000000,60.0000000000,83.0000000000,196.0000000000,120.0000000000
1717675236506,345.0000000000,280.0000000000,60.0000000000,82.0000000000,195.0000000000,120.0000000000
1717675236506,343.0000000000,278.0000000000,60.0000000000,81.0000000000,193.0000000000,119.0000000000
1717675236506,340.0000000000,275.0000000000,60.0000000000,81.0000000000,192.0000000000,118.0000000000
1717675236506,337.0000000000,273.0000000000,60.0000000000,80.0000000000,191.0000000000,118.0000000000
1717675236506,335.0000000000,271.0000000000,59.0000000000,79.0000000000,190.0000000000,116.0000000000
1717675236520,334.0000000000,268.0000000000,58.0000000000,79.0000000000,188.0000000000,115.0000000000
1717675236521,331.0000000000,267.0000000000,57.0000000000,79.0000000000,187.0000000000,115.0000000000
1717675236521,329.0000000000,264.0000000000,57.0000000000,79.0000000000,186.0000000000,115.0000000000
1717675236521,327.0000000000,263.0000000000,57.0000000000,78.0000000000,185.0000000000,113.0000000000
1717675236521,324.0000000000,262.0000000000,57.0000000000,78.0000000000,184.0000000000,113.0000000000
1717675236521,322.0000000000,259.0000000000,56.0000000000,77.0000000000,183.0000000000,112.0000000000
1717675236521,319.0000000000,257.0000000000,56.0000000000,77.0000000000,182.0000000000,111.0000000000
1717675236521,318.0000000000,255.0000000000,56.0000000000,76.0000000000,180.0000000000,111.0000000000
1717675236521,316.0000000000,254.0000000000,56.0000000000,76.0000000000,179.0000000000,110.0000000000
1717675236537,313.0000000000,252.0000000000,56.0000000000,76.0000000000,177.0000000000,109.0000000000
1717675236537,312.0000000000,251.0000000000,56.0000000000,75.0000000000,177.0000000000,108.0000000000
1717675236537,310.0000000000,248.0000000000,55.0000000000,75.0000000000,175.0000000000,108.0000000000
1717675236537,307.0000000000,247.0000000000,54.0000000000,74.0000000000,175.0000000000,107.0000000000
1717675236537,305.0000000000,245.0000000000,54.0000000000,74.0000000000,173.0000000000,107.0000000000
1717675236538,303.0000000000,243.0000000000,54.0000000000,73.0000000000,172.0000000000,106.0000000000
1717675236538,302.0000000000,242.0000000000,54.0000000000,72.0000000000,171.0000000000,105.0000000000
1717675236538,300.0000000000,240.0000000000,53.0000000000,72.0000000000,169.0000000000,112.0000000000
1717675236553,297.0000000000,239.0000000000,52.0000000000,71.0000000000,169.0000000000,112.0000000000
1717675236554,295.0000000000,238.0000000000,52.0000000000,71.0000000000,167.0000000000,111.0000000000
1717675236555,294.0000000000,236.0000000000,52.0000000000,71.0000000000,167.0000000000,110.0000000000
1717675236555,292.0000000000,234.0000000000,51.0000000000,71.0000000000,206.0000000000,109.0000000000
1717675236555,290.0000000000,231.0000000000,51.0000000000,71.0000000000,204.0000000000,108.0000000000
1717675236555,288.0000000000,231.0000000000,51.0000000000,70.0000000000,203.0000000000,108.0000000000
1717675236556,286.0000000000,229.0000000000,51.0000000000,70.0000000000,201.0000000000,107.0000000000
1717675236556,284.0000000000,227.0000000000,50.0000000000,69.0000000000,199.0000000000,106.0000000000
1717675236556,371.0000000000,227.0000000000,50.0000000000,68.0000000000,199.0000000000,105.0000000000
1717675236556,473.0000000000,225.0000000000,50.0000000000,68.0000000000,197.0000000000,104.0000000000
1717675236589,467.0000000000,224.0000000000,49.0000000000,68.0000000000,195.0000000000,103.0000000000
1717675236590,463.0000000000,222.0000000000,49.0000000000,67.0000000000,194.0000000000,103.0000000000
1717675236590,459.0000000000,220.0000000000,49.0000000000,67.0000000000,193.0000000000,103.0000000000
1717675236591,454.0000000000,220.0000000000,49.0000000000,67.0000000000,192.0000000000,102.0000000000
1717675236591,450.0000000000,219.0000000000,48.0000000000,67.0000000000,191.0000000000,102.0000000000
1717675236591,446.0000000000,216.0000000000,53.0000000000,66.0000000000,190.0000000000,101.0000000000
1717675236591,441.0000000000,281.0000000000,52.0000000000,66.0000000000,188.0000000000,100.0000000000
1717675236592,438.0000000000,280.0000000000,52.0000000000,65.0000000000,187.0000000000,99.0000000000
1717675236593,433.0000000000,276.0000000000,52.0000000000,65.0000000000,185.0000000000,99.0000000000
1717675236593,431.0000000000,275.0000000000,51.0000000000,65.0000000000,184.0000000000,99.0000000000
1717675236593,427.0000000000,272.0000000000,51.0000000000,64.0000000000,183.0000000000,98.0000000000
1717675236594,423.0000000000,271.0000000000,51.0000000000,63.0000000000,183.0000000000,97.0000000000
1717675236594,420.0000000000,268.0000000000,50.0000000000,63.0000000000,181.0000000000,97.0000000000
1717675236594,416.0000000000,278.0000000000,51.0000000000,63.0000000000,180.0000000000,96.0000000000
1717675236594,413.0000000000,275.0000000000,49.0000000000,63.0000000000,179.0000000000,95.0000000000
1717675236594,409.0000000000,274.0000000000,49.0000000000,63.0000000000,178.0000000000,96.0000000000
1717675236595,407.0000000000,271.0000000000,49.0000000000,98.0000000000,177.0000000000,95.0000000000
1717675236595,403.0000000000,270.0000000000,49.0000000000,97.0000000000,176.0000000000,94.0000000000
1717675236595,400.0000000000,268.0000000000,49.0000000000,96.0000000000,175.0000000000,94.0000000000
1717675236596,397.0000000000,266.0000000000,48.0000000000,96.0000000000,174.0000000000,93.0000000000
1717675236621,395.0000000000,263.0000000000,48.0000000000,95.0000000000,172.0000000000,92.0000000000
1717675236622,391.0000000000,263.0000000000,48.0000000000,95.0000000000,171.0000000000,92.0000000000
1717675236623,388.0000000000,260.0000000000,47.0000000000,94.0000000000,169.0000000000,91.0000000000
1717675236623,385.0000000000,259.0000000000,47.0000000000,93.0000000000,168.0000000000,91.0000000000
1717675236623,383.0000000000,257.0000000000,47.0000000000,92.0000000000,167.0000000000,90.0000000000
1717675236624,380.0000000000,255.0000000000,46.0000000000,92.0000000000,176.0000000000,89.0000000000
1717675236624,377.0000000000,254.0000000000,46.0000000000,92.0000000000,285.0000000000,89.0000000000
1717675236624,375.0000000000,252.0000000000,46.0000000000,91.0000000000,281.0000000000,89.0000000000
1717675236624,371.0000000000,250.0000000000,46.0000000000,89.0000000000,280.0000000000,88.0000000000
1717675236624,369.0000000000,248.0000000000,46.0000000000,89.0000000000,278.0000000000,88.0000000000
1717675236625,367.0000000000,247.0000000000,46.0000000000,89.0000000000,275.0000000000,88.0000000000
1717675236625,364.0000000000,246.0000000000,45.0000000000,88.0000000000,273.0000000000,87.0000000000
1717675236625,361.0000000000,243.0000000000,44.0000000000,88.0000000000,271.0000000000,86.0000000000
1717675236625,359.0000000000,243.0000000000,45.0000000000,88.0000000000,270.0000000000,86.0000000000
1717675236626,356.0000000000,240.0000000000,44.0000000000,87.0000000000,268.0000000000,85.0000000000
1717675236626,353.0000000000,239.0000000000,44.0000000000,86.0000000000,265.0000000000,84.0000000000
1717675236626,352.0000000000,238.0000000000,44.0000000000,86.0000000000,263.0000000000,84.0000000000
1717675236649,348.0000000000,236.0000000000,43.0000000000,84.0000000000,263.0000000000,83.0000000000
1717675236649,346.0000000000,235.0000000000,43.0000000000,84.0000000000,260.0000000000,83.0000000000
1717675236650,344.0000000000,233.0000000000,43.0000000000,84.0000000000,259.0000000000,89.0000000000
1717675236650,342.0000000000,231.0000000000,43.0000000000,83.0000000000,257.0000000000,88.0000000000
1717675236650,339.0000000000,231.0000000000,43.0000000000,83.0000000000,255.0000000000,88.0000000000
1717675236650,337.0000000000,229.0000000000,42.0000000000,82.0000000000,254.0000000000,88.0000000000
1717675236650,335.0000000000,227.0000000000,42.0000000000,81.0000000000,252.0000000000,87.0000000000
1717675236651,332.0000000000,226.0000000000,42.0000000000,81.0000000000,251.0000000000,86.0000000000
1717675236651,330.0000000000,225.0000000000,41.0000000000,81.0000000000,249.0000000000,85.0000000000
1717675236651,327.0000000000,223.0000000000,41.0000000000,79.0000000000,263.0000000000,86.0000000000
1717675236651,326.0000000000,222.0000000000,49.0000000000,111.0000000000,262.0000000000,85.0000000000
1717675236652,323.0000000000,220.0000000000,48.0000000000,109.0000000000,259.0000000000,83.0000000000
1717675236652,321.0000000000,220.0000000000,48.0000000000,108.0000000000,257.0000000000,83.0000000000
1717675236671,319.0000000000,218.0000000000,48.0000000000,107.0000000000,255.0000000000,83.0000000000
1717675236672,316.0000000000,216.0000000000,48.0000000000,107.0000000000,254.0000000000,82.0000000000
1717675236672,315.0000000000,216.0000000000,46.0000000000,105.0000000000,252.0000000000,82.0000000000
1717675236672,312.0000000000,214.0000000000,47.0000000000,104.0000000000,251.0000000000,81.0000000000
1717675236673,311.0000000000,212.0000000000,47.0000000000,103.0000000000,248.0000000000,80.0000000000
1717675236673,308.0000000000,211.0000000000,46.0000000000,103.0000000000,248.0000000000,80.0000000000
1717675236673,306.0000000000,209.0000000000,47.0000000000,103.0000000000,246.0000000000,79.0000000000
1717675236673,304.0000000000,207.0000000000,46.0000000000,101.0000000000,243.0000000000,79.0000000000
1717675236674,302.0000000000,207.0000000000,46.0000000000,100.0000000000,242.0000000000,79.0000000000
1717675236674,300.0000000000,206.0000000000,45.0000000000,100.0000000000,240.0000000000,79.0000000000
1717675236674,298.0000000000,204.0000000000,45.0000000000,99.0000000000,239.0000000000,78.0000000000
1717675236700,295.0000000000,204.0000000000,45.0000000000,99.0000000000,238.0000000000,78.0000000000
1717675236701,295.0000000000,287.0000000000,44.0000000000,99.0000000000,236.0000000000,77.0000000000
1717675236701,292.0000000000,326.0000000000,44.0000000000,97.0000000000,235.0000000000,77.0000000000
1717675236702,291.0000000000,322.0000000000,44.0000000000,97.0000000000,233.0000000000,76.0000000000
1717675236703,289.0000000000,319.0000000000,44.0000000000,97.0000000000,233.0000000000,76.0000000000
1717675236704,287.0000000000,318.0000000000,44.0000000000,96.0000000000,231.0000000000,75.0000000000
1717675236704,285.0000000000,315.0000000000,44.0000000000,95.0000000000,230.0000000000,75.0000000000
1717675236704,284.0000000000,312.0000000000,43.0000000000,95.0000000000,228.0000000000,75.0000000000
1717675236705,282.0000000000,310.0000000000,43.0000000000,94.0000000000,227.0000000000,74.0000000000
1717675236705,280.0000000000,308.0000000000,42.0000000000,93.0000000000,227.0000000000,73.0000000000
1717675236706,279.0000000000,305.0000000000,42.0000000000,93.0000000000,225.0000000000,73.0000000000
1717675236707,276.0000000000,303.0000000000,42.0000000000,103.0000000000,223.0000000000,72.0000000000
1717675236707,275.0000000000,301.0000000000,41.0000000000,103.0000000000,222.0000000000,71.0000000000
1717675236708,273.0000000000,299.0000000000,41.0000000000,102.0000000000,220.0000000000,71.0000000000
1717675236710,271.0000000000,295.0000000000,41.0000000000,102.0000000000,228.0000000000,71.0000000000
1717675236711,270.0000000000,294.0000000000,40.0000000000,100.0000000000,226.0000000000,71.0000000000
1717675236711,268.0000000000,292.0000000000,40.0000000000,99.0000000000,224.0000000000,71.0000000000
1717675236712,267.0000000000,291.0000000000,39.0000000000,99.0000000000,223.0000000000,70.0000000000
1717675236713,265.0000000000,287.0000000000,39.0000000000,99.0000000000,222.0000000000,70.0000000000
1717675236714,263.0000000000,287.0000000000,39.0000000000,98.0000000000,220.0000000000,70.0000000000
1717675236715,262.0000000000,284.0000000000,39.0000000000,97.0000000000,219.0000000000,69.0000000000
1717675236716,260.0000000000,283.0000000000,39.0000000000,96.0000000000,217.0000000000,68.0000000000
1717675236717,259.0000000000,281.0000000000,39.0000000000,96.0000000000,216.0000000000,68.0000000000
1717675236717,257.0000000000,280.0000000000,39.0000000000,96.0000000000,215.0000000000,67.0000000000
1717675236741,255.0000000000,277.0000000000,39.0000000000,95.0000000000,214.0000000000,67.0000000000
1717675236742,255.0000000000,275.0000000000,38.0000000000,94.0000000000,212.0000000000,67.0000000000
1717675236742,254.0000000000,273.0000000000,38.0000000000,94.0000000000,211.0000000000,67.0000000000
1717675236742,252.0000000000,271.0000000000,38.0000000000,92.0000000000,210.0000000000,66.0000000000
1717675236742,251.0000000000,270.0000000000,37.0000000000,92.0000000000,208.0000000000,66.0000000000
1717675236742,249.0000000000,269.0000000000,37.0000000000,92.0000000000,207.0000000000,66.0000000000
1717675236743,248.0000000000,267.0000000000,36.0000000000,91.0000000000,206.0000000000,65.0000000000
1717675236743,246.0000000000,265.0000000000,37.0000000000,91.0000000000,205.0000000000,65.0000000000
1717675236743,244.0000000000,263.0000000000,37.0000000000,89.0000000000,204.0000000000,64.0000000000
1717675236743,243.0000000000,262.0000000000,36.0000000000,89.0000000000,203.0000000000,64.0000000000
1717675236743,281.0000000000,260.0000000000,36.0000000000,88.0000000000,201.0000000000,63.0000000000
1717675236744,455.0000000000,259.0000000000,35.0000000000,88.0000000000,199.0000000000,63.0000000000
1717675236744,449.0000000000,255.0000000000,35.0000000000,88.0000000000,199.0000000000,63.0000000000
1717675236757,444.0000000000,255.0000000000,35.0000000000,87.0000000000,198.0000000000,63.0000000000
1717675236758,440.0000000000,254.0000000000,35.0000000000,87.0000000000,196.0000000000,62.0000000000
1717675236758,435.0000000000,263.0000000000,35.0000000000,86.0000000000,195.0000000000,62.0000000000
1717675236758,432.0000000000,262.0000000000,35.0000000000,86.0000000000,194.0000000000,62.0000000000
1717675236758,428.0000000000,260.0000000000,35.0000000000,84.0000000000,193.0000000000,61.0000000000
1717675236758,424.0000000000,259.0000000000,34.0000000000,85.0000000000,192.0000000000,61.0000000000
1717675236759,421.0000000000,255.0000000000,34.0000000000,83.0000000000,192.0000000000,60.0000000000
1717675236759,417.0000000000,254.0000000000,34.0000000000,83.0000000000,190.0000000000,60.0000000000
1717675236759,414.0000000000,254.0000000000,34.0000000000,83.0000000000,189.0000000000,60.0000000000
1717675236773,411.0000000000,252.0000000000,33.0000000000,83.0000000000,188.0000000000,59.0000000000
1717675236774,408.0000000000,250.0000000000,33.0000000000,82.0000000000,187.0000000000,59.0000000000
1717675236774,404.0000000000,248.0000000000,33.0000000000,81.0000000000,185.0000000000,59.0000000000
1717675236774,400.0000000000,248.0000000000,33.0000000000,81.0000000000,185.0000000000,58.0000000000
1717675236774,398.0000000000,246.0000000000,33.0000000000,81.0000000000,184.0000000000,58.0000000000
1717675236774,395.0000000000,243.0000000000,33.0000000000,135.0000000000,183.0000000000,57.0000000000
1717675236774,391.0000000000,242.0000000000,33.0000000000,133.0000000000,182.0000000000,57.0000000000
1717675236774,388.0000000000,240.0000000000,32.0000000000,131.0000000000,180.0000000000,57.0000000000
1717675236789,385.0000000000,239.0000000000,32.0000000000,131.0000000000,179.0000000000,57.0000000000
1717675236790,383.0000000000,237.0000000000,31.0000000000,130.0000000000,179.0000000000,57.0000000000
1717675236791,379.0000000000,236.0000000000,31.0000000000,129.0000000000,177.0000000000,56.0000000000
1717675236791,376.0000000000,235.0000000000,31.0000000000,127.0000000000,176.0000000000,56.0000000000
1717675236791,374.0000000000,233.0000000000,31.0000000000,127.0000000000,176.0000000000,56.0000000000
1717675236792,370.0000000000,231.0000000000,31.0000000000,126.0000000000,175.0000000000,56.0000000000
1717675236792,368.0000000000,231.0000000000,31.0000000000,126.0000000000,173.0000000000,56.0000000000
1717675236793,365.0000000000,228.0000000000,31.0000000000,124.0000000000,172.0000000000,55.0000000000
1717675236793,362.0000000000,227.0000000000,30.0000000000,124.0000000000,171.0000000000,55.0000000000
1717675236793,359.0000000000,226.0000000000,30.0000000000,123.0000000000,171.0000000000,54.0000000000
1717675236794,356.0000000000,225.0000000000,30.0000000000,122.0000000000,169.0000000000,54.0000000000
1717675236826,354.0000000000,223.0000000000,30.0000000000,121.0000000000,167.0000000000,54.0000000000
1717675236827,352.0000000000,222.0000000000,30.0000000000,120.0000000000,167.0000000000,54.0000000000
1717675236827,349.0000000000,220.0000000000,29.0000000000,120.0000000000,167.0000000000,52.0000000000
1717675236827,346.0000000000,220.0000000000,29.0000000000,119.0000000000,169.0000000000,52.0000000000
1717675236827,344.0000000000,217.0000000000,30.0000000000,118.0000000000,169.0000000000,52.0000000000
1717675236827,342.0000000000,216.0000000000,29.0000000000,118.0000000000,167.0000000000,51.0000000000
1717675236827,339.0000000000,216.0000000000,29.0000000000,116.0000000000,167.0000000000,52.0000000000
1717675236827,336.0000000000,214.0000000000,28.0000000000,115.0000000000,167.0000000000,51.0000000000
1717675236828,334.0000000000,212.0000000000,29.0000000000,115.0000000000,165.0000000000,51.0000000000
1717675236828,332.0000000000,211.0000000000,28.0000000000,113.0000000000,163.0000000000,51.0000000000
1717675236828,329.0000000000,210.0000000000,28.0000000000,113.0000000000,163.0000000000,51.0000000000
1717675236828,327.0000000000,209.0000000000,28.0000000000,112.0000000000,162.0000000000,50.0000000000
1717675236828,324.0000000000,207.0000000000,28.0000000000,112.0000000000,161.0000000000,50.0000000000
1717675236828,323.0000000000,206.0000000000,28.0000000000,111.0000000000,160.0000000000,49.0000000000
1717675236828,465.0000000000,206.0000000000,28.0000000000,162.0000000000,159.0000000000,49.0000000000
1717675236828,460.0000000000,248.0000000000,51.0000000000,159.0000000000,159.0000000000,49.0000000000
1717675236841,454.0000000000,246.0000000000,49.0000000000,158.0000000000,158.0000000000,48.0000000000
1717675236842,450.0000000000,243.0000000000,49.0000000000,156.0000000000,157.0000000000,49.0000000000
1717675236844,446.0000000000,242.0000000000,49.0000000000,156.0000000000,156.0000000000,48.0000000000
1717675236844,441.0000000000,240.0000000000,49.0000000000,155.0000000000,155.0000000000,48.0000000000
1717675236844,438.0000000000,238.0000000000,48.0000000000,153.0000000000,154.0000000000,47.0000000000
1717675236844,433.0000000000,236.0000000000,48.0000000000,152.0000000000,153.0000000000,47.0000000000
1717675236844,430.0000000000,236.0000000000,47.0000000000,152.0000000000,152.0000000000,47.0000000000
1717675236845,425.0000000000,233.0000000000,47.0000000000,150.0000000000,152.0000000000,47.0000000000
1717675236845,423.0000000000,231.0000000000,47.0000000000,149.0000000000,151.0000000000,47.0000000000
1717675236873,419.0000000000,230.0000000000,47.0000000000,148.0000000000,150.0000000000,46.0000000000
1717675236874,415.0000000000,228.0000000000,46.0000000000,147.0000000000,150.0000000000,46.0000000000
1717675236874,412.0000000000,227.0000000000,46.0000000000,145.0000000000,148.0000000000,46.0000000000
1717675236874,408.0000000000,225.0000000000,46.0000000000,144.0000000000,147.0000000000,45.0000000000
1717675236874,404.0000000000,224.0000000000,46.0000000000,143.0000000000,147.0000000000,45.0000000000
1717675236874,401.0000000000,222.0000000000,45.0000000000,143.0000000000,146.0000000000,45.0000000000
1717675236874,399.0000000000,220.0000000000,44.0000000000,142.0000000000,145.0000000000,45.0000000000
1717675236874,396.0000000000,219.0000000000,44.0000000000,141.0000000000,144.0000000000,44.0000000000
1717675236874,391.0000000000,217.0000000000,44.0000000000,140.0000000000,143.0000000000,44.0000000000
1717675236874,388.0000000000,216.0000000000,44.0000000000,139.0000000000,143.0000000000,44.0000000000
1717675236875,385.0000000000,215.0000000000,44.0000000000,138.0000000000,142.0000000000,43.0000000000
1717675236875,383.0000000000,214.0000000000,43.0000000000,137.0000000000,141.0000000000,43.0000000000
1717675236875,380.0000000000,212.0000000000,43.0000000000,135.0000000000,140.0000000000,43.0000000000
1717675236875,377.0000000000,211.0000000000,43.0000000000,135.0000000000,142.0000000000,43.0000000000
1717675236890,374.0000000000,209.0000000000,42.0000000000,135.0000000000,142.0000000000,60.0000000000
1717675236892,371.0000000000,208.0000000000,41.0000000000,134.0000000000,141.0000000000,96.0000000000
1717675236893,368.0000000000,207.0000000000,42.0000000000,133.0000000000,140.0000000000,94.0000000000
1717675236894,366.0000000000,206.0000000000,41.0000000000,131.0000000000,139.0000000000,94.0000000000
1717675236894,363.0000000000,204.0000000000,41.0000000000,131.0000000000,138.0000000000,93.0000000000
1717675236894,359.0000000000,203.0000000000,41.0000000000,130.0000000000,137.0000000000,92.0000000000
1717675236894,358.0000000000,201.0000000000,40.0000000000,129.0000000000,137.0000000000,92.0000000000
1717675236894,355.0000000000,200.0000000000,40.0000000000,128.0000000000,135.0000000000,91.0000000000
1717675236894,352.0000000000,199.0000000000,40.0000000000,127.0000000000,135.0000000000,91.0000000000
1717675236894,349.0000000000,198.0000000000,39.0000000000,127.0000000000,135.0000000000,89.0000000000
1717675236894,347.0000000000,196.0000000000,39.0000000000,126.0000000000,134.0000000000,89.0000000000
1717675236908,344.0000000000,195.0000000000,39.0000000000,125.0000000000,134.0000000000,88.0000000000
1717675236908,351.0000000000,195.0000000000,39.0000000000,124.0000000000,132.0000000000,88.0000000000
1717675236909,430.0000000000,193.0000000000,39.0000000000,124.0000000000,131.0000000000,87.0000000000
1717675236909,425.0000000000,192.0000000000,39.0000000000,123.0000000000,131.0000000000,87.0000000000
1717675236909,421.0000000000,192.0000000000,39.0000000000,122.0000000000,130.0000000000,86.0000000000
1717675236909,417.0000000000,190.0000000000,38.0000000000,121.0000000000,130.0000000000,86.0000000000
1717675236910,414.0000000000,200.0000000000,38.0000000000,120.0000000000,129.0000000000,85.0000000000
1717675236910,409.0000000000,305.0000000000,37.0000000000,120.0000000000,127.0000000000,83.0000000000
1717675236923,406.0000000000,302.0000000000,37.0000000000,119.0000000000,127.0000000000,83.0000000000
1717675236924,403.0000000000,299.0000000000,36.0000000000,118.0000000000,127.0000000000,83.0000000000
1717675236924,399.0000000000,295.0000000000,36.0000000000,118.0000000000,127.0000000000,83.0000000000
1717675236924,396.0000000000,295.0000000000,36.0000000000,116.0000000000,126.0000000000,82.0000000000
1717675236924,391.0000000000,292.0000000000,36.0000000000,116.0000000000,125.0000000000,82.0000000000
1717675236924,390.0000000000,289.0000000000,38.0000000000,115.0000000000,124.0000000000,81.0000000000
1717675236924,386.0000000000,287.0000000000,38.0000000000,115.0000000000,123.0000000000,80.0000000000
1717675236938,384.0000000000,286.0000000000,38.0000000000,113.0000000000,123.0000000000,79.0000000000
1717675236939,380.0000000000,284.0000000000,37.0000000000,113.0000000000,122.0000000000,79.0000000000
1717675236939,377.0000000000,281.0000000000,37.0000000000,112.0000000000,121.0000000000,79.0000000000
1717675236939,374.0000000000,280.0000000000,36.0000000000,112.0000000000,120.0000000000,79.0000000000
1717675236939,371.0000000000,278.0000000000,36.0000000000,111.0000000000,120.0000000000,78.0000000000
1717675236939,368.0000000000,275.0000000000,36.0000000000,110.0000000000,120.0000000000,78.0000000000
1717675236939,365.0000000000,273.0000000000,36.0000000000,110.0000000000,119.0000000000,77.0000000000
1717675236939,363.0000000000,271.0000000000,35.0000000000,109.0000000000,119.0000000000,76.0000000000
1717675236957,359.0000000000,270.0000000000,35.0000000000,108.0000000000,118.0000000000,76.0000000000
1717675236958,357.0000000000,268.0000000000,35.0000000000,108.0000000000,192.0000000000,76.0000000000
1717675236959,355.0000000000,265.0000000000,35.0000000000,107.0000000000,189.0000000000,75.0000000000
1717675236960,352.0000000000,263.0000000000,35.0000000000,106.0000000000,188.0000000000,74.0000000000
1717675236960,349.0000000000,262.0000000000,35.0000000000,105.0000000000,186.0000000000,74.0000000000
1717675236960,346.0000000000,260.0000000000,34.0000000000,104.0000000000,184.0000000000,73.0000000000
1717675236960,344.0000000000,259.0000000000,34.0000000000,103.0000000000,183.0000000000,73.0000000000
1717675236961,342.0000000000,257.0000000000,34.0000000000,103.0000000000,182.0000000000,72.0000000000
1717675236961,339.0000000000,255.0000000000,33.0000000000,103.0000000000,180.0000000000,72.0000000000
1717675236961,335.0000000000,254.0000000000,33.0000000000,103.0000000000,179.0000000000,71.0000000000
1717675236962,334.0000000000,252.0000000000,33.0000000000,102.0000000000,178.0000000000,71.0000000000
1717675236962,332.0000000000,251.0000000000,33.0000000000,101.0000000000,177.0000000000,71.0000000000
1717675236962,329.0000000000,248.0000000000,33.0000000000,100.0000000000,176.0000000000,71.0000000000
1717675236988,327.0000000000,247.0000000000,33.0000000000,100.0000000000,175.0000000000,80.0000000000
1717675236989,331.0000000000,245.0000000000,32.0000000000,99.0000000000,174.0000000000,79.0000000000
1717675236989,327.0000000000,243.0000000000,31.0000000000,99.0000000000,172.0000000000,79.0000000000
1717675236989,326.0000000000,242.0000000000,32.0000000000,117.0000000000,171.0000000000,78.0000000000
1717675236989,323.0000000000,240.0000000000,32.0000000000,120.0000000000,170.0000000000,78.0000000000
1717675236989,321.0000000000,240.0000000000,32.0000000000,119.0000000000,169.0000000000,77.0000000000
1717675236989,319.0000000000,238.0000000000,31.0000000000,118.0000000000,167.0000000000,77.0000000000
1717675236989,316.0000000000,236.0000000000,31.0000000000,117.0000000000,167.0000000000,76.0000000000
1717675236990,315.0000000000,235.0000000000,31.0000000000,115.0000000000,166.0000000000,76.0000000000
1717675236990,312.0000000000,233.0000000000,31.0000000000,115.0000000000,166.0000000000,75.0000000000
1717675236990,310.0000000000,231.0000000000,31.0000000000,114.0000000000,164.0000000000,75.0000000000
1717675236990,308.0000000000,304.0000000000,77.0000000000,114.0000000000,163.0000000000,75.0000000000
1717675237005,306.0000000000,319.0000000000,76.0000000000,113.0000000000,161.0000000000,73.0000000000
1717675237006,304.0000000000,316.0000000000,75.0000000000,112.0000000000,160.0000000000,73.0000000000
1717675237006,302.0000000000,313.0000000000,74.0000000000,112.0000000000,159.0000000000,72.0000000000
1717675237006,300.0000000000,311.0000000000,73.0000000000,111.0000000000,158.0000000000,72.0000000000
1717675237006,297.0000000000,308.0000000000,73.0000000000,110.0000000000,158.0000000000,71.0000000000
1717675237006,295.0000000000,307.0000000000,72.0000000000,108.0000000000,159.0000000000,71.0000000000
1717675237006,294.0000000000,304.0000000000,71.0000000000,108.0000000000,158.0000000000,71.0000000000
1717675237006,292.0000000000,302.0000000000,71.0000000000,108.0000000000,158.0000000000,71.0000000000
1717675237006,290.0000000000,300.0000000000,71.0000000000,107.0000000000,156.0000000000,70.0000000000
1717675237006,287.0000000000,297.0000000000,71.0000000000,107.0000000000,156.0000000000,69.0000000000
1717675237006,287.0000000000,295.0000000000,70.0000000000,105.0000000000,155.0000000000,68.0000000000
1717675237021,284.0000000000,292.0000000000,69.0000000000,105.0000000000,154.0000000000,68.0000000000
1717675237021,283.0000000000,291.0000000000,70.0000000000,103.0000000000,152.0000000000,68.0000000000
1717675237021,280.0000000000,288.0000000000,68.0000000000,103.0000000000,152.0000000000,68.0000000000
1717675237021,280.0000000000,287.0000000000,68.0000000000,103.0000000000,151.0000000000,70.0000000000
1717675237022,278.0000000000,285.0000000000,67.0000000000,102.0000000000,150.0000000000,70.0000000000
1717675237022,275.0000000000,283.0000000000,67.0000000000,155.0000000000,149.0000000000,70.0000000000
1717675237038,274.0000000000,281.0000000000,67.0000000000,157.0000000000,148.0000000000,69.0000000000
1717675237039,271.0000000000,279.0000000000,66.0000000000,156.0000000000,147.0000000000,68.0000000000
1717675237039,270.0000000000,278.0000000000,66.0000000000,155.0000000000,146.0000000000,68.0000000000
1717675237040,268.0000000000,275.0000000000,65.0000000000,153.0000000000,196.0000000000,67.0000000000
1717675237040,267.0000000000,273.0000000000,65.0000000000,152.0000000000,245.0000000000,67.0000000000
1717675237041,265.0000000000,271.0000000000,65.0000000000,151.0000000000,243.0000000000,67.0000000000
1717675237041,263.0000000000,270.0000000000,63.0000000000,150.0000000000,241.0000000000,66.0000000000
1717675237041,262.0000000000,268.0000000000,63.0000000000,153.0000000000,239.0000000000,66.0000000000
1717675237041,260.0000000000,265.0000000000,63.0000000000,152.0000000000,238.0000000000,65.0000000000
1717675237042,259.0000000000,263.0000000000,63.0000000000,151.0000000000,236.0000000000,64.0000000000
1717675237070,257.0000000000,262.0000000000,63.0000000000,150.0000000000,233.0000000000,64.0000000000
1717675237071,255.0000000000,260.0000000000,62.0000000000,148.0000000000,231.0000000000,64.0000000000
1717675237071,254.0000000000,259.0000000000,62.0000000000,147.0000000000,231.0000000000,63.0000000000
1717675237071,252.0000000000,257.0000000000,61.0000000000,146.0000000000,228.0000000000,63.0000000000
1717675237071,251.0000000000,255.0000000000,61.0000000000,145.0000000000,227.0000000000,63.0000000000
1717675237071,249.0000000000,254.0000000000,60.0000000000,144.0000000000,225.0000000000,63.0000000000
1717675237071,248.0000000000,252.0000000000,60.0000000000,143.0000000000,224.0000000000,62.0000000000
1717675237071,246.0000000000,251.0000000000,60.0000000000,142.0000000000,222.0000000000,62.0000000000
1717675237071,244.0000000000,249.0000000000,60.0000000000,141.0000000000,221.0000000000,61.0000000000
1717675237071,243.0000000000,247.0000000000,59.0000000000,140.0000000000,220.0000000000,61.0000000000
1717675237071,242.0000000000,246.0000000000,58.0000000000,139.0000000000,219.0000000000,61.0000000000
1717675237071,240.0000000000,243.0000000000,59.0000000000,138.0000000000,217.0000000000,60.0000000000
1717675237072,343.0000000000,242.0000000000,57.0000000000,137.0000000000,216.0000000000,60.0000000000
1717675237072,339.0000000000,241.0000000000,57.0000000000,137.0000000000,214.0000000000,59.0000000000
1717675237072,335.0000000000,240.0000000000,63.0000000000,135.0000000000,212.0000000000,59.0000000000
1717675237086,332.0000000000,239.0000000000,63.0000000000,135.0000000000,211.0000000000,59.0000000000
1717675237088,329.0000000000,269.0000000000,63.0000000000,133.0000000000,209.0000000000,58.0000000000
1717675237088,327.0000000000,266.0000000000,62.0000000000,134.0000000000,207.0000000000,57.0000000000
1717675237088,323.0000000000,263.0000000000,62.0000000000,132.0000000000,207.0000000000,58.0000000000
1717675237089,321.0000000000,262.0000000000,62.0000000000,131.0000000000,206.0000000000,57.0000000000
1717675237089,319.0000000000,260.0000000000,61.0000000000,131.0000000000,204.0000000000,57.0000000000
1717675237089,316.0000000000,259.0000000000,61.0000000000,129.0000000000,203.0000000000,56.0000000000
1717675237089,314.0000000000,255.0000000000,60.0000000000,128.0000000000,201.0000000000,56.0000000000
1717675237090,312.0000000000,255.0000000000,60.0000000000,127.0000000000,199.0000000000,56.0000000000
1717675237090,310.0000000000,253.0000000000,59.0000000000,127.0000000000,199.0000000000,56.0000000000
1717675237090,307.0000000000,251.0000000000,59.0000000000,127.0000000000,198.0000000000,56.0000000000
1717675237125,304.0000000000,249.0000000000,59.0000000000,127.0000000000,196.0000000000,55.0000000000
1717675237126,302.0000000000,248.0000000000,58.0000000000,126.0000000000,195.0000000000,55.0000000000
1717675237127,300.0000000000,246.0000000000,57.0000000000,126.0000000000,194.0000000000,55.0000000000
1717675237127,298.0000000000,243.0000000000,57.0000000000,125.0000000000,193.0000000000,54.0000000000
1717675237127,295.0000000000,243.0000000000,57.0000000000,124.0000000000,192.0000000000,54.0000000000
1717675237128,294.0000000000,241.0000000000,56.0000000000,123.0000000000,191.0000000000,53.0000000000
1717675237128,291.0000000000,239.0000000000,56.0000000000,172.0000000000,189.0000000000,53.0000000000
1717675237128,289.0000000000,238.0000000000,56.0000000000,178.0000000000,188.0000000000,52.0000000000
1717675237128,287.0000000000,236.0000000000,56.0000000000,177.0000000000,187.0000000000,52.0000000000
1717675237129,284.0000000000,235.0000000000,56.0000000000,175.0000000000,186.0000000000,51.0000000000
1717675237129,284.0000000000,233.0000000000,55.0000000000,174.0000000000,184.0000000000,51.0000000000
1717675237129,281.0000000000,231.0000000000,55.0000000000,172.0000000000,184.0000000000,51.0000000000
1717675237129,279.0000000000,230.0000000000,54.0000000000,172.0000000000,183.0000000000,51.0000000000
1717675237130,278.0000000000,229.0000000000,54.0000000000,169.0000000000,182.0000000000,51.0000000000
1717675237130,275.0000000000,227.0000000000,54.0000000000,168.0000000000,180.0000000000,50.0000000000
1717675237131,273.0000000000,225.0000000000,54.0000000000,167.0000000000,179.0000000000,50.0000000000
1717675237132,271.0000000000,224.0000000000,52.0000000000,167.0000000000,179.0000000000,50.0000000000
1717675237132,270.0000000000,223.0000000000,52.0000000000,165.0000000000,177.0000000000,49.0000000000
1717675237133,268.0000000000,222.0000000000,52.0000000000,163.0000000000,176.0000000000,49.0000000000
1717675237133,265.0000000000,220.0000000000,52.0000000000,163.0000000000,175.0000000000,49.0000000000
1717675237135,263.0000000000,219.0000000000,51.0000000000,162.0000000000,174.0000000000,48.0000000000
1717675237135,262.0000000000,217.0000000000,51.0000000000,161.0000000000,173.0000000000,48.0000000000
1717675237135,260.0000000000,216.0000000000,51.0000000000,159.0000000000,172.0000000000,48.0000000000
1717675237154,259.0000000000,215.0000000000,51.0000000000,159.0000000000,171.0000000000,47.0000000000
1717675237155,257.0000000000,214.0000000000,50.0000000000,158.0000000000,169.0000000000,47.0000000000
1717675237155,284.0000000000,248.0000000000,51.0000000000,157.0000000000,169.0000000000,47.0000000000
1717675237155,282.0000000000,281.0000000000,51.0000000000,156.0000000000,167.0000000000,47.0000000000
1717675237155,280.0000000000,279.0000000000,51.0000000000,155.0000000000,167.0000000000,47.0000000000
1717675237155,278.0000000000,276.0000000000,51.0000000000,153.0000000000,166.0000000000,46.0000000000
1717675237156,275.0000000000,275.0000000000,50.0000000000,152.0000000000,165.0000000000,46.0000000000
1717675237156,375.0000000000,273.0000000000,51.0000000000,152.0000000000,163.0000000000,46.0000000000
1717675237156,429.0000000000,270.0000000000,49.0000000000,151.0000000000,163.0000000000,45.0000000000
1717675237157,423.0000000000,268.0000000000,50.0000000000,150.0000000000,161.0000000000,45.0000000000
1717675237178,420.0000000000,267.0000000000,49.0000000000,148.0000000000,161.0000000000,45.0000000000
1717675237181,415.0000000000,263.0000000000,49.0000000000,147.0000000000,159.0000000000,44.0000000000
1717675237182,412.0000000000,263.0000000000,49.0000000000,147.0000000000,159.0000000000,44.0000000000
1717675237183,408.0000000000,260.0000000000,48.0000000000,146.0000000000,158.0000000000,44.0000000000
1717675237184,406.0000000000,259.0000000000,48.0000000000,144.0000000000,157.0000000000,44.0000000000
1717675237185,401.0000000000,257.0000000000,48.0000000000,143.0000000000,156.0000000000,43.0000000000
1717675237187,398.0000000000,255.0000000000,47.0000000000,143.0000000000,156.0000000000,44.0000000000
1717675237188,395.0000000000,254.0000000000,48.0000000000,142.0000000000,154.0000000000,43.0000000000
1717675237189,391.0000000000,252.0000000000,47.0000000000,141.0000000000,153.0000000000,43.0000000000
1717675237190,388.0000000000,249.0000000000,47.0000000000,140.0000000000,152.0000000000,42.0000000000
1717675237191,385.0000000000,248.0000000000,46.0000000000,140.0000000000,152.0000000000,42.0000000000
1717675237192,382.0000000000,247.0000000000,46.0000000000,138.0000000000,151.0000000000,41.0000000000
1717675237192,380.0000000000,245.0000000000,46.0000000000,137.0000000000,150.0000000000,41.0000000000
1717675237193,376.0000000000,243.0000000000,46.0000000000,135.0000000000,150.0000000000,41.0000000000
1717675237193,373.0000000000,241.0000000000,45.0000000000,135.0000000000,148.0000000000,41.0000000000
1717675237194,370.0000000000,240.0000000000,45.0000000000,135.0000000000,147.0000000000,41.0000000000
1717675237194,367.0000000000,238.0000000000,44.0000000000,134.0000000000,147.0000000000,40.0000000000
1717675237194,364.0000000000,236.0000000000,44.0000000000,134.0000000000,146.0000000000,40.0000000000
1717675237195,361.0000000000,236.0000000000,44.0000000000,132.0000000000,145.0000000000,39.0000000000
1717675237209,359.0000000000,233.0000000000,44.0000000000,131.0000000000,144.0000000000,39.0000000000
1717675237210,356.0000000000,231.0000000000,43.0000000000,131.0000000000,143.0000000000,39.0000000000
1717675237210,353.0000000000,231.0000000000,43.0000000000,129.0000000000,142.0000000000,39.0000000000
1717675237210,351.0000000000,230.0000000000,43.0000000000,129.0000000000,142.0000000000,39.0000000000
1717675237210,348.0000000000,227.0000000000,43.0000000000,127.0000000000,141.0000000000,92.0000000000
1717675237210,345.0000000000,227.0000000000,42.0000000000,127.0000000000,140.0000000000,92.0000000000
1717675237211,344.0000000000,225.0000000000,43.0000000000,127.0000000000,179.0000000000,91.0000000000
1717675237211,340.0000000000,224.0000000000,42.0000000000,126.0000000000,217.0000000000,90.0000000000
1717675237273,338.0000000000,222.0000000000,42.0000000000,125.0000000000,216.0000000000,89.0000000000
1717675237276,335.0000000000,220.0000000000,41.0000000000,124.0000000000,214.0000000000,88.0000000000
1717675237277,333.0000000000,219.0000000000,41.0000000000,124.0000000000,212.0000000000,88.0000000000
1717675237277,331.0000000000,217.0000000000,41.0000000000,123.0000000000,211.0000000000,88.0000000000
1717675237278,327.0000000000,216.0000000000,39.0000000000,122.0000000000,209.0000000000,87.0000000000
1717675237278,327.0000000000,216.0000000000,40.0000000000,121.0000000000,207.0000000000,87.0000000000
1717675237279,323.0000000000,214.0000000000,39.0000000000,120.0000000000,206.0000000000,86.0000000000
1717675237280,321.0000000000,212.0000000000,39.0000000000,120.0000000000,204.0000000000,85.0000000000
1717675237280,319.0000000000,211.0000000000,39.0000000000,119.0000000000,204.0000000000,84.0000000000
1717675237281,317.0000000000,210.0000000000,39.0000000000,118.0000000000,202.0000000000,84.0000000000
1717675237282,315.0000000000,208.0000000000,39.0000000000,118.0000000000,201.0000000000,83.0000000000
1717675237283,312.0000000000,207.0000000000,39.0000000000,116.0000000000,199.0000000000,83.0000000000
1717675237284,311.0000000000,240.0000000000,39.0000000000,115.0000000000,198.0000000000,82.0000000000
1717675237285,308.0000000000,243.0000000000,39.0000000000,115.0000000000,196.0000000000,82.0000000000
1717675237286,499.0000000000,241.0000000000,39.0000000000,114.0000000000,195.0000000000,81.0000000000
1717675237287,491.0000000000,240.0000000000,38.0000000000,113.0000000000,194.0000000000,80.0000000000
1717675237288,486.0000000000,237.0000000000,38.0000000000,113.0000000000,193.0000000000,80.0000000000
1717675237289,481.0000000000,236.0000000000,38.0000000000,112.0000000000,192.0000000000,79.0000000000
1717675237290,476.0000000000,233.0000000000,38.0000000000,112.0000000000,190.0000000000,79.0000000000
1717675237290,472.0000000000,231.0000000000,38.0000000000,141.0000000000,202.0000000000,79.0000000000
1717675237291,467.0000000000,231.0000000000,37.0000000000,166.0000000000,199.0000000000,78.0000000000
1717675237292,463.0000000000,229.0000000000,36.0000000000,165.0000000000,199.0000000000,78.0000000000
1717675237293,459.0000000000,227.0000000000,36.0000000000,163.0000000000,197.0000000000,77.0000000000
1717675237293,455.0000000000,226.0000000000,35.0000000000,162.0000000000,195.0000000000,76.0000000000
1717675237294,451.0000000000,224.0000000000,36.0000000000,160.0000000000,195.0000000000,76.0000000000
1717675237296,447.0000000000,223.0000000000,36.0000000000,159.0000000000,193.0000000000,75.0000000000
1717675237296,443.0000000000,221.0000000000,35.0000000000,159.0000000000,192.0000000000,75.0000000000
1717675237296,440.0000000000,220.0000000000,35.0000000000,158.0000000000,191.0000000000,75.0000000000
1717675237296,435.0000000000,217.0000000000,35.0000000000,156.0000000000,190.0000000000,73.0000000000
1717675237297,432.0000000000,216.0000000000,35.0000000000,156.0000000000,188.0000000000,73.0000000000
1717675237297,428.0000000000,215.0000000000,35.0000000000,154.0000000000,187.0000000000,73.0000000000
1717675237297,423.0000000000,214.0000000000,35.0000000000,153.0000000000,185.0000000000,72.0000000000
1717675237298,421.0000000000,212.0000000000,35.0000000000,152.0000000000,184.0000000000,71.0000000000
1717675237298,417.0000000000,211.0000000000,34.0000000000,152.0000000000,183.0000000000,71.0000000000
1717675237298,415.0000000000,209.0000000000,33.0000000000,150.0000000000,196.0000000000,71.0000000000
1717675237298,411.0000000000,207.0000000000,34.0000000000,150.0000000000,194.0000000000,71.0000000000
1717675237299,408.0000000000,207.0000000000,33.0000000000,148.0000000000,193.0000000000,71.0000000000
1717675237299,404.0000000000,206.0000000000,33.0000000000,147.0000000000,192.0000000000,70.0000000000
1717675237299,401.0000000000,204.0000000000,33.0000000000,146.0000000000,191.0000000000,70.0000000000
1717675237299,398.0000000000,203.0000000000,33.0000000000,145.0000000000,189.0000000000,69.0000000000
1717675237299,395.0000000000,201.0000000000,32.0000000000,144.0000000000,188.0000000000,69.0000000000
1717675237299,391.0000000000,200.0000000000,32.0000000000,143.0000000000,217.0000000000,71.0000000000
1717675237300,388.0000000000,199.0000000000,31.0000000000,142.0000000000,215.0000000000,71.0000000000
1717675237300,385.0000000000,198.0000000000,32.0000000000,142.0000000000,214.0000000000,71.0000000000
1717675237300,383.0000000000,197.0000000000,32.0000000000,140.0000000000,211.0000000000,71.0000000000
1717675237300,380.0000000000,195.0000000000,31.0000000000,140.0000000000,209.0000000000,70.0000000000
1717675237326,376.0000000000,195.0000000000,31.0000000000,139.0000000000,208.0000000000,69.0000000000
1717675237328,374.0000000000,193.0000000000,31.0000000000,137.0000000000,207.0000000000,69.0000000000
1717675237330,436.0000000000,192.0000000000,57.0000000000,137.0000000000,206.0000000000,68.0000000000
1717675237331,527.0000000000,192.0000000000,60.0000000000,135.0000000000,204.0000000000,68.0000000000
1717675237333,520.0000000000,190.0000000000,59.0000000000,135.0000000000,203.0000000000,67.0000000000
1717675237334,515.0000000000,189.0000000000,59.0000000000,134.0000000000,201.0000000000,67.0000000000
1717675237334,510.0000000000,188.0000000000,59.0000000000,133.0000000000,199.0000000000,67.0000000000
1717675237335,504.0000000000,187.0000000000,57.0000000000,132.0000000000,199.0000000000,66.0000000000
1717675237335,500.0000000000,185.0000000000,57.0000000000,131.0000000000,197.0000000000,65.0000000000
1717675237336,496.0000000000,188.0000000000,56.0000000000,131.0000000000,196.0000000000,65.0000000000
1717675237336,491.0000000000,185.0000000000,56.0000000000,129.0000000000,195.0000000000,65.0000000000
1717675237337,487.0000000000,184.0000000000,56.0000000000,129.0000000000,269.0000000000,64.0000000000
1717675237337,482.0000000000,184.0000000000,56.0000000000,127.0000000000,265.0000000000,63.0000000000
1717675237337,478.0000000000,182.0000000000,55.0000000000,127.0000000000,263.0000000000,63.0000000000
1717675237337,473.0000000000,182.0000000000,55.0000000000,127.0000000000,260.0000000000,63.0000000000
1717675237338,469.0000000000,180.0000000000,55.0000000000,126.0000000000,259.0000000000,63.0000000000
1717675237338,465.0000000000,179.0000000000,55.0000000000,124.0000000000,257.0000000000,63.0000000000
1717675237338,460.0000000000,178.0000000000,54.0000000000,124.0000000000,255.0000000000,62.0000000000
1717675237338,457.0000000000,177.0000000000,53.0000000000,123.0000000000,254.0000000000,62.0000000000
1717675237339,452.0000000000,176.0000000000,53.0000000000,123.0000000000,252.0000000000,62.0000000000
1717675237339,449.0000000000,175.0000000000,52.0000000000,121.0000000000,250.0000000000,62.0000000000
1717675237384,446.0000000000,174.0000000000,52.0000000000,121.0000000000,248.0000000000,60.0000000000
1717675237385,441.0000000000,173.0000000000,52.0000000000,120.0000000000,247.0000000000,60.0000000000
1717675237386,438.0000000000,172.0000000000,51.0000000000,120.0000000000,244.0000000000,60.0000000000
1717675237386,434.0000000000,172.0000000000,51.0000000000,119.0000000000,243.0000000000,59.0000000000
1717675237386,431.0000000000,170.0000000000,51.0000000000,118.0000000000,241.0000000000,59.0000000000
1717675237386,427.0000000000,169.0000000000,51.0000000000,117.0000000000,240.0000000000,59.0000000000
1717675237387,423.0000000000,167.0000000000,50.0000000000,116.0000000000,238.0000000000,59.0000000000
1717675237387,420.0000000000,167.0000000000,49.0000000000,115.0000000000,236.0000000000,58.0000000000
1717675237388,417.0000000000,167.0000000000,49.0000000000,115.0000000000,235.0000000000,57.0000000000
1717675237388,414.0000000000,166.0000000000,49.0000000000,114.0000000000,233.0000000000,57.0000000000
1717675237389,411.0000000000,165.0000000000,48.0000000000,113.0000000000,231.0000000000,57.0000000000
1717675237389,408.0000000000,163.0000000000,49.0000000000,113.0000000000,231.0000000000,57.0000000000
1717675237389,403.0000000000,163.0000000000,48.0000000000,112.0000000000,229.0000000000,56.0000000000
1717675237389,400.0000000000,161.0000000000,48.0000000000,112.0000000000,227.0000000000,56.0000000000
1717675237390,398.0000000000,161.0000000000,47.0000000000,111.0000000000,226.0000000000,56.0000000000
1717675237390,394.0000000000,160.0000000000,47.0000000000,110.0000000000,224.0000000000,56.0000000000
1717675237391,391.0000000000,159.0000000000,47.0000000000,110.0000000000,267.0000000000,55.0000000000
1717675237391,388.0000000000,159.0000000000,47.0000000000,109.0000000000,263.0000000000,55.0000000000
1717675237391,385.0000000000,157.0000000000,47.0000000000,108.0000000000,262.0000000000,55.0000000000
1717675237391,383.0000000000,156.0000000000,46.0000000000,108.0000000000,259.0000000000,56.0000000000
1717675237392,380.0000000000,156.0000000000,46.0000000000,106.0000000000,258.0000000000,56.0000000000
1717675237392,376.0000000000,155.0000000000,46.0000000000,107.0000000000,255.0000000000,56.0000000000
1717675237392,374.0000000000,154.0000000000,46.0000000000,105.0000000000,254.0000000000,56.0000000000
1717675237393,371.0000000000,153.0000000000,45.0000000000,104.0000000000,252.0000000000,56.0000000000
1717675237393,368.0000000000,152.0000000000,45.0000000000,103.0000000000,251.0000000000,55.0000000000
1717675237393,366.0000000000,152.0000000000,45.0000000000,103.0000000000,248.0000000000,55.0000000000
1717675237394,364.0000000000,238.0000000000,44.0000000000,103.0000000000,247.0000000000,54.0000000000
1717675237413,360.0000000000,384.0000000000,44.0000000000,102.0000000000,246.0000000000,54.0000000000
1717675237414,358.0000000000,376.0000000000,44.0000000000,102.0000000000,244.0000000000,53.0000000000
1717675237414,355.0000000000,372.0000000000,44.0000000000,102.0000000000,242.0000000000,53.0000000000
1717675237414,353.0000000000,369.0000000000,43.0000000000,127.0000000000,240.0000000000,52.0000000000
1717675237414,351.0000000000,366.0000000000,44.0000000000,127.0000000000,239.0000000000,52.0000000000
1717675237414,348.0000000000,363.0000000000,88.0000000000,126.0000000000,237.0000000000,52.0000000000
1717675237415,345.0000000000,359.0000000000,88.0000000000,124.0000000000,236.0000000000,51.0000000000
1717675237415,344.0000000000,358.0000000000,88.0000000000,124.0000000000,234.0000000000,51.0000000000
1717675237415,341.0000000000,354.0000000000,86.0000000000,123.0000000000,231.0000000000,51.0000000000
1717675237415,339.0000000000,352.0000000000,86.0000000000,123.0000000000,231.0000000000,51.0000000000
1717675237415,335.0000000000,348.0000000000,84.0000000000,121.0000000000,229.0000000000,51.0000000000
1717675237432,334.0000000000,347.0000000000,83.0000000000,120.0000000000,227.0000000000,50.0000000000
1717675237433,332.0000000000,344.0000000000,83.0000000000,120.0000000000,226.0000000000,49.0000000000
1717675237433,329.0000000000,342.0000000000,83.0000000000,119.0000000000,224.0000000000,49.0000000000
1717675237433,327.0000000000,339.0000000000,82.0000000000,118.0000000000,223.0000000000,49.0000000000
1717675237433,324.0000000000,336.0000000000,82.0000000000,117.0000000000,222.0000000000,49.0000000000
1717675237433,323.0000000000,334.0000000000,81.0000000000,115.0000000000,221.0000000000,48.0000000000
1717675237434,319.0000000000,331.0000000000,81.0000000000,115.0000000000,219.0000000000,48.0000000000
1717675237434,318.0000000000,328.0000000000,80.0000000000,115.0000000000,217.0000000000,48.0000000000
1717675237434,316.0000000000,326.0000000000,79.0000000000,114.0000000000,216.0000000000,48.0000000000
1717675237434,314.0000000000,324.0000000000,79.0000000000,113.0000000000,216.0000000000,152.0000000000
1717675237453,312.0000000000,321.0000000000,79.0000000000,112.0000000000,214.0000000000,150.0000000000
1717675237455,310.0000000000,319.0000000000,78.0000000000,112.0000000000,212.0000000000,148.0000000000
1717675237455,307.0000000000,317.0000000000,77.0000000000,111.0000000000,211.0000000000,147.0000000000
1717675237455,305.0000000000,315.0000000000,77.0000000000,110.0000000000,210.0000000000,146.0000000000
1717675237455,304.0000000000,313.0000000000,76.0000000000,109.0000000000,209.0000000000,145.0000000000
1717675237456,301.0000000000,311.0000000000,76.0000000000,108.0000000000,207.0000000000,143.0000000000
1717675237456,300.0000000000,307.0000000000,76.0000000000,108.0000000000,206.0000000000,143.0000000000
1717675237456,297.0000000000,305.0000000000,75.0000000000,107.0000000000,204.0000000000,142.0000000000
1717675237457,295.0000000000,304.0000000000,74.0000000000,106.0000000000,204.0000000000,140.0000000000
1717675237457,293.0000000000,302.0000000000,74.0000000000,105.0000000000,201.0000000000,140.0000000000
1717675237495,291.0000000000,299.0000000000,73.0000000000,105.0000000000,200.0000000000,139.0000000000
1717675237496,289.0000000000,297.0000000000,73.0000000000,103.0000000000,199.0000000000,137.0000000000
1717675237497,287.0000000000,295.0000000000,71.0000000000,103.0000000000,199.0000000000,137.0000000000
1717675237497,285.0000000000,293.0000000000,71.0000000000,103.0000000000,196.0000000000,135.0000000000
1717675237497,284.0000000000,291.0000000000,71.0000000000,103.0000000000,195.0000000000,135.0000000000
1717675237497,281.0000000000,289.0000000000,71.0000000000,102.0000000000,194.0000000000,134.0000000000
1717675237498,280.0000000000,287.0000000000,70.0000000000,101.0000000000,193.0000000000,133.0000000000
1717675237498,343.0000000000,285.0000000000,70.0000000000,99.0000000000,192.0000000000,132.0000000000
1717675237498,339.0000000000,364.0000000000,69.0000000000,99.0000000000,191.0000000000,131.0000000000
1717675237498,336.0000000000,361.0000000000,69.0000000000,99.0000000000,190.0000000000,131.0000000000
1717675237499,334.0000000000,359.0000000000,69.0000000000,139.0000000000,188.0000000000,129.0000000000
1717675237499,331.0000000000,420.0000000000,68.0000000000,136.0000000000,187.0000000000,128.0000000000
1717675237500,327.0000000000,415.0000000000,67.0000000000,135.0000000000,185.0000000000,127.0000000000
1717675237500,326.0000000000,412.0000000000,67.0000000000,135.0000000000,184.0000000000,127.0000000000
1717675237501,323.0000000000,408.0000000000,67.0000000000,134.0000000000,184.0000000000,126.0000000000
1717675237501,319.0000000000,404.0000000000,67.0000000000,132.0000000000,183.0000000000,125.0000000000
1717675237502,317.0000000000,401.0000000000,66.0000000000,131.0000000000,182.0000000000,124.0000000000
1717675237502,315.0000000000,398.0000000000,66.0000000000,131.0000000000,180.0000000000,124.0000000000
1717675237502,312.0000000000,395.0000000000,65.0000000000,129.0000000000,179.0000000000,123.0000000000
1717675237503,310.0000000000,391.0000000000,65.0000000000,129.0000000000,177.0000000000,122.0000000000
1717675237503,307.0000000000,388.0000000000,63.0000000000,127.0000000000,177.0000000000,121.0000000000
1717675237504,305.0000000000,384.0000000000,63.0000000000,127.0000000000,176.0000000000,120.0000000000
1717675237504,303.0000000000,382.0000000000,63.0000000000,126.0000000000,255.0000000000,120.0000000000
1717675237504,300.0000000000,379.0000000000,63.0000000000,125.0000000000,252.0000000000,120.0000000000
1717675237504,297.0000000000,376.0000000000,63.0000000000,124.0000000000,249.0000000000,118.0000000000
1717675237536,295.0000000000,372.0000000000,63.0000000000,123.0000000000,248.0000000000,118.0000000000
1717675237537,294.0000000000,369.0000000000,61.0000000000,123.0000000000,246.0000000000,116.0000000000
1717675237537,291.0000000000,367.0000000000,61.0000000000,121.0000000000,243.0000000000,115.0000000000
1717675237537,289.0000000000,364.0000000000,61.0000000000,137.0000000000,241.0000000000,115.0000000000
1717675237538,287.0000000000,361.0000000000,61.0000000000,135.0000000000,240.0000000000,115.0000000000
1717675237538,284.0000000000,359.0000000000,60.0000000000,135.0000000000,238.0000000000,113.0000000000
1717675237538,283.0000000000,355.0000000000,60.0000000000,134.0000000000,236.0000000000,113.0000000000
1717675237538,280.0000000000,352.0000000000,60.0000000000,132.0000000000,235.0000000000,112.0000000000
1717675237539,279.0000000000,350.0000000000,59.0000000000,131.0000000000,233.0000000000,112.0000000000
1717675237539,276.0000000000,348.0000000000,59.0000000000,131.0000000000,231.0000000000,111.0000000000
1717675237539,275.0000000000,345.0000000000,59.0000000000,129.0000000000,230.0000000000,110.0000000000
1717675237540,273.0000000000,343.0000000000,58.0000000000,129.0000000000,228.0000000000,110.0000000000
1717675237540,271.0000000000,339.0000000000,57.0000000000,127.0000000000,227.0000000000,108.0000000000
1717675237540,270.0000000000,337.0000000000,57.0000000000,127.0000000000,224.0000000000,108.0000000000
1717675237540,268.0000000000,335.0000000000,56.0000000000,126.0000000000,223.0000000000,108.0000000000
1717675237540,266.0000000000,332.0000000000,56.0000000000,125.0000000000,222.0000000000,107.0000000000
1717675237541,263.0000000000,330.0000000000,56.0000000000,124.0000000000,220.0000000000,106.0000000000
1717675237541,263.0000000000,327.0000000000,56.0000000000,124.0000000000,219.0000000000,105.0000000000
1717675237562,261.0000000000,325.0000000000,56.0000000000,122.0000000000,217.0000000000,103.0000000000
1717675237562,259.0000000000,323.0000000000,77.0000000000,121.0000000000,216.0000000000,103.0000000000
1717675237563,257.0000000000,320.0000000000,145.0000000000,121.0000000000,214.0000000000,103.0000000000
1717675237563,255.0000000000,319.0000000000,143.0000000000,120.0000000000,212.0000000000,103.0000000000
1717675237563,255.0000000000,350.0000000000,143.0000000000,120.0000000000,211.0000000000,102.0000000000
1717675237563,253.0000000000,428.0000000000,141.0000000000,118.0000000000,209.0000000000,101.0000000000
1717675237563,251.0000000000,423.0000000000,140.0000000000,118.0000000000,208.0000000000,101.0000000000
1717675237563,249.0000000000,419.0000000000,139.0000000000,116.0000000000,207.0000000000,100.0000000000
1717675237564,248.0000000000,415.0000000000,137.0000000000,115.0000000000,206.0000000000,99.0000000000
1717675237582,247.0000000000,411.0000000000,135.0000000000,115.0000000000,204.0000000000,99.0000000000
1717675237582,245.0000000000,408.0000000000,135.0000000000,114.0000000000,203.0000000000,98.0000000000
1717675237582,243.0000000000,403.0000000000,135.0000000000,113.0000000000,201.0000000000,97.0000000000
1717675237582,241.0000000000,399.0000000000,134.0000000000,112.0000000000,199.0000000000,97.0000000000
1717675237582,240.0000000000,397.0000000000,132.0000000000,112.0000000000,199.0000000000,96.0000000000
1717675237583,239.0000000000,393.0000000000,132.0000000000,111.0000000000,198.0000000000,96.0000000000
1717675237583,238.0000000000,391.0000000000,131.0000000000,110.0000000000,196.0000000000,95.0000000000
1717675237583,236.0000000000,387.0000000000,130.0000000000,109.0000000000,195.0000000000,95.0000000000
1717675237583,235.0000000000,384.0000000000,129.0000000000,108.0000000000,193.0000000000,94.0000000000
1717675237583,233.0000000000,381.0000000000,127.0000000000,108.0000000000,192.0000000000,93.0000000000
1717675237609,231.0000000000,377.0000000000,127.0000000000,107.0000000000,191.0000000000,93.0000000000
1717675237611,231.0000000000,375.0000000000,127.0000000000,107.0000000000,190.0000000000,92.0000000000
1717675237611,228.0000000000,371.0000000000,126.0000000000,106.0000000000,188.0000000000,92.0000000000
1717675237612,227.0000000000,368.0000000000,126.0000000000,104.0000000000,188.0000000000,92.0000000000
1717675237612,226.0000000000,366.0000000000,124.0000000000,103.0000000000,187.0000000000,91.0000000000
1717675237612,225.0000000000,364.0000000000,124.0000000000,103.0000000000,185.0000000000,89.0000000000
1717675237612,224.0000000000,360.0000000000,123.0000000000,103.0000000000,184.0000000000,89.0000000000
1717675237613,222.0000000000,358.0000000000,121.0000000000,103.0000000000,183.0000000000,89.0000000000
1717675237613,221.0000000000,355.0000000000,121.0000000000,102.0000000000,182.0000000000,88.0000000000
1717675237613,220.0000000000,352.0000000000,120.0000000000,101.0000000000,180.0000000000,88.0000000000
1717675237614,217.0000000000,350.0000000000,120.0000000000,100.0000000000,179.0000000000,88.0000000000
1717675237614,216.0000000000,347.0000000000,119.0000000000,99.0000000000,178.0000000000,86.0000000000
1717675237614,216.0000000000,344.0000000000,118.0000000000,99.0000000000,247.0000000000,86.0000000000
1717675237615,215.0000000000,342.0000000000,117.0000000000,99.0000000000,244.0000000000,86.0000000000
1717675237616,213.0000000000,339.0000000000,116.0000000000,97.0000000000,242.0000000000,85.0000000000
1717675237616,212.0000000000,337.0000000000,115.0000000000,97.0000000000,240.0000000000,85.0000000000
1717675237617,211.0000000000,335.0000000000,115.0000000000,96.0000000000,239.0000000000,84.0000000000
1717675237617,209.0000000000,333.0000000000,115.0000000000,96.0000000000,236.0000000000,83.0000000000
1717675237617,209.0000000000,331.0000000000,113.0000000000,96.0000000000,236.0000000000,83.0000000000
1717675237633,207.0000000000,327.0000000000,113.0000000000,95.0000000000,234.0000000000,83.0000000000
1717675237634,206.0000000000,327.0000000000,112.0000000000,95.0000000000,231.0000000000,82.0000000000
1717675237634,205.0000000000,323.0000000000,112.0000000000,94.0000000000,230.0000000000,81.0000000000
1717675237634,204.0000000000,321.0000000000,115.0000000000,142.0000000000,229.0000000000,81.0000000000
1717675237634,203.0000000000,319.0000000000,120.0000000000,140.0000000000,227.0000000000,81.0000000000
1717675237634,201.0000000000,317.0000000000,120.0000000000,138.0000000000,225.0000000000,80.0000000000
1717675237634,200.0000000000,315.0000000000,119.0000000000,137.0000000000,224.0000000000,79.0000000000
1717675237634,349.0000000000,313.0000000000,118.0000000000,135.0000000000,223.0000000000,79.0000000000
1717675237653,452.0000000000,311.0000000000,117.0000000000,135.0000000000,221.0000000000,79.0000000000
1717675237654,446.0000000000,310.0000000000,116.0000000000,134.0000000000,219.0000000000,78.0000000000
1717675237654,441.0000000000,348.0000000000,115.0000000000,133.0000000000,217.0000000000,78.0000000000
1717675237654,436.0000000000,371.0000000000,114.0000000000,131.0000000000,216.0000000000,77.0000000000
1717675237655,433.0000000000,367.0000000000,114.0000000000,131.0000000000,215.0000000000,77.0000000000
1717675237655,428.0000000000,364.0000000000,113.0000000000,131.0000000000,214.0000000000,76.0000000000
1717675237655,425.0000000000,361.0000000000,112.0000000000,129.0000000000,211.0000000000,76.0000000000
1717675237655,420.0000000000,358.0000000000,111.0000000000,127.0000000000,211.0000000000,76.0000000000
1717675237655,417.0000000000,410.0000000000,111.0000000000,127.0000000000,208.0000000000,75.0000000000
1717675237656,413.0000000000,406.0000000000,110.0000000000,127.0000000000,207.0000000000,75.0000000000
1717675237671,409.0000000000,401.0000000000,110.0000000000,126.0000000000,206.0000000000,74.0000000000
1717675237672,406.0000000000,398.0000000000,108.0000000000,124.0000000000,204.0000000000,73.0000000000
1717675237673,403.0000000000,395.0000000000,108.0000000000,124.0000000000,207.0000000000,73.0000000000
1717675237673,399.0000000000,391.0000000000,107.0000000000,123.0000000000,206.0000000000,72.0000000000
1717675237673,396.0000000000,388.0000000000,107.0000000000,122.0000000000,204.0000000000,72.0000000000
1717675237674,391.0000000000,385.0000000000,106.0000000000,121.0000000000,203.0000000000,71.0000000000
1717675237675,388.0000000000,382.0000000000,105.0000000000,120.0000000000,201.0000000000,71.0000000000
1717675237675,385.0000000000,379.0000000000,103.0000000000,120.0000000000,199.0000000000,71.0000000000
1717675237675,383.0000000000,376.0000000000,103.0000000000,119.0000000000,199.0000000000,71.0000000000
1717675237675,380.0000000000,372.0000000000,103.0000000000,118.0000000000,198.0000000000,70.0000000000
1717675237705,376.0000000000,369.0000000000,103.0000000000,117.0000000000,196.0000000000,70.0000000000
1717675237706,374.0000000000,366.0000000000,102.0000000000,116.0000000000,195.0000000000,70.0000000000
1717675237707,371.0000000000,364.0000000000,101.0000000000,115.0000000000,193.0000000000,69.0000000000
1717675237707,367.0000000000,361.0000000000,100.0000000000,114.0000000000,193.0000000000,68.0000000000
1717675237707,364.0000000000,358.0000000000,100.0000000000,114.0000000000,192.0000000000,67.0000000000
1717675237708,361.0000000000,355.0000000000,99.0000000000,113.0000000000,190.0000000000,67.0000000000
1717675237708,359.0000000000,352.0000000000,99.0000000000,112.0000000000,188.0000000000,67.0000000000
1717675237708,355.0000000000,350.0000000000,99.0000000000,111.0000000000,188.0000000000,67.0000000000
1717675237708,353.0000000000,347.0000000000,98.0000000000,111.0000000000,187.0000000000,66.0000000000
1717675237709,351.0000000000,344.0000000000,97.0000000000,110.0000000000,185.0000000000,115.0000000000
1717675237709,348.0000000000,344.0000000000,97.0000000000,109.0000000000,277.0000000000,192.0000000000
1717675237709,345.0000000000,339.0000000000,96.0000000000,108.0000000000,274.0000000000,190.0000000000
1717675237709,344.0000000000,337.0000000000,95.0000000000,108.0000000000,271.0000000000,188.0000000000
1717675237710,340.0000000000,335.0000000000,95.0000000000,107.0000000000,269.0000000000,187.0000000000
1717675237710,337.0000000000,332.0000000000,94.0000000000,107.0000000000,267.0000000000,185.0000000000
1717675237711,335.0000000000,330.0000000000,94.0000000000,106.0000000000,269.0000000000,184.0000000000
1717675237751,332.0000000000,327.0000000000,93.0000000000,105.0000000000,267.0000000000,183.0000000000
1717675237752,331.0000000000,324.0000000000,92.0000000000,103.0000000000,263.0000000000,181.0000000000
1717675237752,327.0000000000,323.0000000000,92.0000000000,103.0000000000,263.0000000000,179.0000000000
1717675237752,325.0000000000,319.0000000000,92.0000000000,103.0000000000,260.0000000000,178.0000000000
1717675237753,337.0000000000,318.0000000000,91.0000000000,103.0000000000,286.0000000000,177.0000000000
1717675237753,334.0000000000,316.0000000000,90.0000000000,102.0000000000,295.0000000000,176.0000000000
1717675237753,331.0000000000,313.0000000000,89.0000000000,101.0000000000,292.0000000000,175.0000000000
1717675237753,327.0000000000,352.0000000000,89.0000000000,108.0000000000,289.0000000000,174.0000000000
1717675237754,326.0000000000,348.0000000000,88.0000000000,107.0000000000,287.0000000000,172.0000000000
1717675237754,323.0000000000,345.0000000000,88.0000000000,106.0000000000,285.0000000000,171.0000000000
1717675237754,319.0000000000,343.0000000000,88.0000000000,105.0000000000,283.0000000000,170.0000000000
1717675237754,318.0000000000,339.0000000000,87.0000000000,103.0000000000,280.0000000000,168.0000000000
1717675237755,316.0000000000,336.0000000000,87.0000000000,103.0000000000,279.0000000000,167.0000000000
1717675237755,313.0000000000,335.0000000000,86.0000000000,103.0000000000,276.0000000000,166.0000000000
1717675237755,312.0000000000,333.0000000000,86.0000000000,102.0000000000,274.0000000000,165.0000000000
1717675237756,308.0000000000,331.0000000000,85.0000000000,102.0000000000,272.0000000000,164.0000000000
1717675237756,307.0000000000,327.0000000000,84.0000000000,100.0000000000,271.0000000000,163.0000000000
1717675237756,304.0000000000,326.0000000000,83.0000000000,100.0000000000,268.0000000000,162.0000000000
1717675237756,303.0000000000,323.0000000000,83.0000000000,99.0000000000,267.0000000000,161.0000000000
1717675237757,300.0000000000,319.0000000000,83.0000000000,99.0000000000,264.0000000000,159.0000000000
1717675237757,297.0000000000,318.0000000000,82.0000000000,98.0000000000,263.0000000000,159.0000000000
1717675237757,295.0000000000,316.0000000000,82.0000000000,97.0000000000,261.0000000000,158.0000000000
1717675237758,294.0000000000,313.0000000000,81.0000000000,97.0000000000,259.0000000000,157.0000000000
1717675237758,292.0000000000,312.0000000000,81.0000000000,96.0000000000,258.0000000000,156.0000000000
1717675237758,290.0000000000,309.0000000000,80.0000000000,96.0000000000,255.0000000000,155.0000000000
1717675237777,287.0000000000,307.0000000000,80.0000000000,95.0000000000,263.0000000000,153.0000000000
1717675237778,287.0000000000,305.0000000000,79.0000000000,94.0000000000,261.0000000000,153.0000000000
1717675237778,284.0000000000,303.0000000000,79.0000000000,94.0000000000,259.0000000000,152.0000000000
1717675237778,283.0000000000,300.0000000000,79.0000000000,94.0000000000,257.0000000000,151.0000000000
