timestamp,Channel 1,Channel 2,Channel 3,Channel 4,Channel 5,Channel 6
1717675213946,32.0000000000,0.0000000000,3.0000000000,99.0000000000,71.0000000000,1.0000000000
1717675213947,32.0000000000,0.0000000000,3.0000000000,99.0000000000,71.0000000000,1.0000000000
1717675213947,31.0000000000,0.0000000000,2.0000000000,99.0000000000,71.0000000000,1.0000000000
1717675213948,31.0000000000,0.0000000000,3.0000000000,98.0000000000,71.0000000000,1.0000000000
1717675213948,31.0000000000,0.0000000000,2.0000000000,97.0000000000,71.0000000000,1.0000000000
1717675213948,31.0000000000,0.0000000000,2.0000000000,97.0000000000,71.0000000000,1.0000000000
1717675213948,31.0000000000,0.0000000000,2.0000000000,96.0000000000,70.0000000000,1.0000000000
1717675213949,31.0000000000,0.0000000000,2.0000000000,96.0000000000,70.0000000000,1.0000000000
1717675213949,31.0000000000,0.0000000000,2.0000000000,96.0000000000,70.0000000000,1.0000000000
1717675213949,31.0000000000,0.0000000000,3.0000000000,95.0000000000,69.0000000000,1.0000000000
1717675213949,31.0000000000,0.0000000000,3.0000000000,95.0000000000,68.0000000000,1.0000000000
1717675213950,31.0000000000,0.0000000000,2.0000000000,95.0000000000,67.0000000000,1.0000000000
1717675213950,31.0000000000,0.0000000000,3.0000000000,94.0000000000,67.0000000000,1.0000000000
1717675213951,30.0000000000,0.0000000000,2.0000000000,94.0000000000,67.0000000000,1.0000000000
1717675213951,30.0000000000,0.0000000000,2.0000000000,93.0000000000,67.0000000000,1.0000000000
1717675213951,30.0000000000,0.0000000000,2.0000000000,93.0000000000,67.0000000000,1.0000000000
1717675213951,30.0000000000,0.0000000000,3.0000000000,92.0000000000,67.0000000000,1.0000000000
1717675213952,30.0000000000,0.0000000000,2.0000000000,92.0000000000,66.0000000000,0.0000000000
1717675213952,30.0000000000,0.0000000000,2.0000000000,91.0000000000,66.0000000000,1.0000000000
1717675213952,30.0000000000,0.0000000000,3.0000000000,91.0000000000,66.0000000000,1.0000000000
1717675213953,29.0000000000,0.0000000000,3.0000000000,90.0000000000,65.0000000000,1.0000000000
1717675213954,29.0000000000,0.0000000000,3.0000000000,89.0000000000,65.0000000000,0.0000000000
1717675213954,29.0000000000,0.0000000000,3.0000000000,89.0000000000,65.0000000000,1.0000000000
1717675213954,29.0000000000,0.0000000000,2.0000000000,89.0000000000,63.0000000000,0.0000000000
1717675213955,29.0000000000,0.0000000000,3.0000000000,89.0000000000,64.0000000000,1.0000000000
1717675213955,28.0000000000,0.0000000000,2.0000000000,88.0000000000,63.0000000000,0.0000000000
1717675213955,28.0000000000,0.0000000000,3.0000000000,88.0000000000,63.0000000000,1.0000000000
1717675213956,28.0000000000,0.0000000000,2.0000000000,88.0000000000,63.0000000000,1.0000000000
1717675213956,28.0000000000,0.0000000000,2.0000000000,88.0000000000,63.0000000000,0.0000000000
1717675213956,28.0000000000,0.0000000000,2.0000000000,87.0000000000,63.0000000000,1.0000000000
1717675213972,28.0000000000,0.0000000000,2.0000000000,87.0000000000,62.0000000000,1.0000000000
1717675213973,28.0000000000,0.0000000000,2.0000000000,86.0000000000,62.0000000000,1.0000000000
1717675213973,27.0000000000,0.0000000000,2.0000000000,86.0000000000,62.0000000000,1.0000000000
1717675213973,27.0000000000,0.0000000000,2.0000000000,85.0000000000,62.0000000000,1.0000000000
1717675213973,28.0000000000,0.0000000000,2.0000000000,85.0000000000,61.0000000000,1.0000000000
1717675213973,27.0000000000,0.0000000000,2.0000000000,84.0000000000,60.0000000000,0.0000000000
1717675213973,27.0000000000,0.0000000000,3.0000000000,84.0000000000,61.0000000000,0.0000000000
1717675213973,27.0000000000,0.0000000000,2.0000000000,84.0000000000,60.0000000000,0.0000000000
1717675213974,27.0000000000,0.0000000000,2.0000000000,83.0000000000,60.0000000000,1.0000000000
1717675213974,27.0000000000,0.0000000000,2.0000000000,83.0000000000,60.0000000000,1.0000000000
1717675213974,27.0000000000,0.0000000000,1.0000000000,83.0000000000,60.0000000000,0.0000000000
1717675213974,25.0000000000,0.0000000000,2.0000000000,82.0000000000,60.0000000000,0.0000000000
1717675213974,26.0000000000,0.0000000000,2.0000000000,82.0000000000,59.0000000000,0.0000000000
1717675213974,25.0000000000,0.0000000000,2.0000000000,81.0000000000,59.0000000000,0.0000000000
1717675213974,26.0000000000,0.0000000000,2.0000000000,81.0000000000,59.0000000000,0.0000000000
1717675214003,25.0000000000,0.0000000000,2.0000000000,81.0000000000,58.0000000000,0.0000000000
1717675214004,25.0000000000,0.0000000000,2.0000000000,80.0000000000,58.0000000000,0.0000000000
1717675214004,25.0000000000,0.0000000000,2.0000000000,79.0000000000,57.0000000000,0.0000000000
1717675214004,25.0000000000,0.0000000000,1.0000000000,79.0000000000,57.0000000000,0.0000000000
1717675214004,25.0000000000,0.0000000000,2.0000000000,79.0000000000,57.0000000000,0.0000000000
1717675214004,25.0000000000,0.0000000000,2.0000000000,78.0000000000,57.0000000000,0.0000000000
1717675214004,25.0000000000,0.0000000000,2.0000000000,79.0000000000,57.0000000000,0.0000000000
1717675214004,24.0000000000,0.0000000000,2.0000000000,79.0000000000,56.0000000000,0.0000000000
1717675214004,25.0000000000,0.0000000000,2.0000000000,78.0000000000,56.0000000000,0.0000000000
1717675214004,36.0000000000,0.0000000000,2.0000000000,78.0000000000,56.0000000000,1.0000000000
1717675214004,36.0000000000,0.0000000000,2.0000000000,77.0000000000,56.0000000000,0.0000000000
1717675214004,36.0000000000,0.0000000000,2.0000000000,76.0000000000,56.0000000000,1.0000000000
1717675214004,36.0000000000,0.0000000000,1.0000000000,76.0000000000,56.0000000000,0.0000000000
1717675214004,35.0000000000,0.0000000000,1.0000000000,76.0000000000,55.0000000000,0.0000000000
1717675214004,35.0000000000,0.0000000000,1.0000000000,76.0000000000,56.0000000000,0.0000000000
1717675214004,35.0000000000,0.0000000000,1.0000000000,76.0000000000,55.0000000000,0.0000000000
1717675214004,35.0000000000,0.0000000000,2.0000000000,75.0000000000,55.0000000000,0.0000000000
1717675214005,35.0000000000,0.0000000000,1.0000000000,74.0000000000,54.0000000000,0.0000000000
1717675214005,35.0000000000,0.0000000000,2.0000000000,75.0000000000,55.0000000000,0.0000000000
1717675214005,35.0000000000,0.0000000000,2.0000000000,75.0000000000,54.0000000000,0.0000000000
1717675214005,35.0000000000,0.0000000000,1.0000000000,73.0000000000,54.0000000000,0.0000000000
1717675214030,34.0000000000,0.0000000000,2.0000000000,73.0000000000,54.0000000000,0.0000000000
1717675214031,34.0000000000,0.0000000000,2.0000000000,72.0000000000,54.0000000000,1.0000000000
1717675214031,33.0000000000,0.0000000000,2.0000000000,73.0000000000,53.0000000000,4.0000000000
1717675214032,34.0000000000,0.0000000000,2.0000000000,71.0000000000,53.0000000000,4.0000000000
1717675214032,34.0000000000,0.0000000000,2.0000000000,71.0000000000,52.0000000000,5.0000000000
1717675214032,33.0000000000,0.0000000000,2.0000000000,71.0000000000,51.0000000000,4.0000000000
1717675214033,33.0000000000,0.0000000000,1.0000000000,71.0000000000,51.0000000000,4.0000000000
1717675214033,33.0000000000,0.0000000000,1.0000000000,71.0000000000,52.0000000000,4.0000000000
1717675214033,33.0000000000,0.0000000000,2.0000000000,71.0000000000,51.0000000000,4.0000000000
1717675214033,32.0000000000,0.0000000000,2.0000000000,71.0000000000,51.0000000000,4.0000000000
1717675214034,33.0000000000,0.0000000000,2.0000000000,70.0000000000,51.0000000000,3.0000000000
1717675214034,31.0000000000,0.0000000000,2.0000000000,70.0000000000,51.0000000000,4.0000000000
1717675214034,31.0000000000,0.0000000000,3.0000000000,70.0000000000,51.0000000000,3.0000000000
1717675214034,31.0000000000,0.0000000000,3.0000000000,70.0000000000,50.0000000000,4.0000000000
1717675214035,32.0000000000,0.0000000000,2.0000000000,69.0000000000,50.0000000000,3.0000000000
1717675214035,31.0000000000,0.0000000000,3.0000000000,69.0000000000,50.0000000000,4.0000000000
1717675214035,31.0000000000,0.0000000000,2.0000000000,68.0000000000,50.0000000000,4.0000000000
1717675214036,31.0000000000,0.0000000000,2.0000000000,68.0000000000,50.0000000000,4.0000000000
1717675214036,31.0000000000,0.0000000000,2.0000000000,68.0000000000,49.0000000000,3.0000000000
1717675214037,31.0000000000,0.0000000000,2.0000000000,67.0000000000,49.0000000000,4.0000000000
1717675214038,31.0000000000,0.0000000000,2.0000000000,67.0000000000,49.0000000000,3.0000000000
1717675214038,31.0000000000,0.0000000000,2.0000000000,67.0000000000,49.0000000000,3.0000000000
1717675214038,31.0000000000,0.0000000000,2.0000000000,67.0000000000,48.0000000000,3.0000000000
1717675214038,31.0000000000,0.0000000000,2.0000000000,67.0000000000,48.0000000000,4.0000000000
1717675214055,31.0000000000,0.0000000000,2.0000000000,67.0000000000,48.0000000000,3.0000000000
1717675214055,30.0000000000,0.0000000000,2.0000000000,67.0000000000,48.0000000000,3.0000000000
1717675214055,30.0000000000,0.0000000000,2.0000000000,66.0000000000,48.0000000000,3.0000000000
1717675214056,30.0000000000,0.0000000000,3.0000000000,65.0000000000,48.0000000000,3.0000000000
1717675214056,30.0000000000,0.0000000000,2.0000000000,65.0000000000,47.0000000000,3.0000000000
1717675214056,29.0000000000,0.0000000000,3.0000000000,65.0000000000,47.0000000000,3.0000000000
1717675214056,30.0000000000,0.0000000000,2.0000000000,65.0000000000,47.0000000000,3.0000000000
1717675214056,30.0000000000,0.0000000000,3.0000000000,64.0000000000,47.0000000000,3.0000000000
1717675214056,30.0000000000,0.0000000000,2.0000000000,63.0000000000,46.0000000000,3.0000000000
1717675214056,29.0000000000,0.0000000000,2.0000000000,64.0000000000,47.0000000000,3.0000000000
1717675214057,29.0000000000,0.0000000000,2.0000000000,63.0000000000,46.0000000000,3.0000000000
1717675214057,28.0000000000,0.0000000000,2.0000000000,63.0000000000,46.0000000000,3.0000000000
1717675214057,28.0000000000,0.0000000000,3.0000000000,63.0000000000,45.0000000000,3.0000000000
1717675214057,28.0000000000,0.0000000000,2.0000000000,63.0000000000,46.0000000000,3.0000000000
1717675214057,28.0000000000,0.0000000000,2.0000000000,63.0000000000,45.0000000000,3.0000000000
1717675214089,28.0000000000,0.0000000000,2.0000000000,62.0000000000,45.0000000000,3.0000000000
1717675214090,28.0000000000,0.0000000000,2.0000000000,62.0000000000,45.0000000000,3.0000000000
1717675214090,28.0000000000,0.0000000000,1.0000000000,62.0000000000,45.0000000000,3.0000000000
1717675214090,28.0000000000,0.0000000000,2.0000000000,62.0000000000,44.0000000000,3.0000000000
1717675214090,28.0000000000,0.0000000000,2.0000000000,62.0000000000,44.0000000000,3.0000000000
1717675214090,28.0000000000,0.0000000000,2.0000000000,62.0000000000,44.0000000000,3.0000000000
1717675214091,28.0000000000,0.0000000000,2.0000000000,61.0000000000,44.0000000000,3.0000000000
1717675214091,28.0000000000,0.0000000000,2.0000000000,60.0000000000,44.0000000000,3.0000000000
1717675214091,28.0000000000,0.0000000000,2.0000000000,60.0000000000,43.0000000000,3.0000000000
1717675214091,27.0000000000,0.0000000000,2.0000000000,60.0000000000,43.0000000000,3.0000000000
1717675214091,28.0000000000,0.0000000000,1.0000000000,60.0000000000,43.0000000000,3.0000000000
1717675214092,27.0000000000,0.0000000000,1.0000000000,60.0000000000,43.0000000000,3.0000000000
1717675214092,27.0000000000,0.0000000000,2.0000000000,60.0000000000,43.0000000000,3.0000000000
1717675214093,27.0000000000,0.0000000000,2.0000000000,60.0000000000,43.0000000000,3.0000000000
1717675214093,27.0000000000,0.0000000000,2.0000000000,59.0000000000,43.0000000000,3.0000000000
1717675214093,27.0000000000,0.0000000000,2.0000000000,59.0000000000,43.0000000000,3.0000000000
1717675214093,27.0000000000,0.0000000000,2.0000000000,59.0000000000,41.0000000000,3.0000000000
1717675214094,27.0000000000,0.0000000000,2.0000000000,59.0000000000,42.0000000000,3.0000000000
1717675214094,26.0000000000,0.0000000000,2.0000000000,58.0000000000,41.0000000000,3.0000000000
1717675214094,27.0000000000,0.0000000000,2.0000000000,59.0000000000,41.0000000000,3.0000000000
1717675214094,26.0000000000,0.0000000000,2.0000000000,57.0000000000,41.0000000000,3.0000000000
1717675214094,26.0000000000,0.0000000000,2.0000000000,57.0000000000,41.0000000000,3.0000000000
1717675214095,26.0000000000,0.0000000000,1.0000000000,57.0000000000,41.0000000000,3.0000000000
1717675214095,25.0000000000,0.0000000000,2.0000000000,56.0000000000,40.0000000000,3.0000000000
1717675214095,25.0000000000,0.0000000000,1.0000000000,57.0000000000,41.0000000000,3.0000000000
1717675214095,25.0000000000,0.0000000000,1.0000000000,56.0000000000,39.0000000000,3.0000000000
1717675214095,25.0000000000,0.0000000000,1.0000000000,56.0000000000,39.0000000000,3.0000000000
1717675214109,25.0000000000,0.0000000000,1.0000000000,56.0000000000,39.0000000000,3.0000000000
1717675214110,25.0000000000,0.0000000000,1.0000000000,56.0000000000,39.0000000000,3.0000000000
1717675214110,24.0000000000,0.0000000000,2.0000000000,56.0000000000,39.0000000000,3.0000000000
1717675214110,25.0000000000,0.0000000000,2.0000000000,56.0000000000,39.0000000000,3.0000000000
1717675214110,24.0000000000,0.0000000000,2.0000000000,56.0000000000,39.0000000000,2.0000000000
1717675214110,24.0000000000,0.0000000000,2.0000000000,55.0000000000,39.0000000000,3.0000000000
1717675214111,24.0000000000,0.0000000000,1.0000000000,56.0000000000,39.0000000000,3.0000000000
1717675214111,24.0000000000,0.0000000000,2.0000000000,55.0000000000,39.0000000000,3.0000000000
1717675214111,24.0000000000,0.0000000000,2.0000000000,55.0000000000,39.0000000000,2.0000000000
1717675214111,24.0000000000,0.0000000000,1.0000000000,55.0000000000,39.0000000000,2.0000000000
1717675214111,24.0000000000,0.0000000000,1.0000000000,54.0000000000,39.0000000000,3.0000000000
1717675214111,24.0000000000,0.0000000000,1.0000000000,54.0000000000,39.0000000000,3.0000000000
1717675214126,24.0000000000,0.0000000000,1.0000000000,54.0000000000,38.0000000000,1.0000000000
1717675214127,24.0000000000,0.0000000000,1.0000000000,53.0000000000,38.0000000000,3.0000000000
1717675214127,23.0000000000,0.0000000000,1.0000000000,53.0000000000,38.0000000000,2.0000000000
1717675214127,24.0000000000,0.0000000000,1.0000000000,53.0000000000,38.0000000000,2.0000000000
1717675214127,24.0000000000,0.0000000000,2.0000000000,52.0000000000,38.0000000000,2.0000000000
1717675214127,24.0000000000,0.0000000000,1.0000000000,52.0000000000,37.0000000000,3.0000000000
1717675214127,23.0000000000,0.0000000000,1.0000000000,52.0000000000,37.0000000000,2.0000000000
1717675214127,24.0000000000,0.0000000000,1.0000000000,52.0000000000,37.0000000000,2.0000000000
1717675214127,24.0000000000,0.0000000000,1.0000000000,51.0000000000,37.0000000000,2.0000000000
1717675214127,23.0000000000,0.0000000000,1.0000000000,52.0000000000,36.0000000000,2.0000000000
1717675214127,23.0000000000,0.0000000000,1.0000000000,51.0000000000,36.0000000000,2.0000000000
1717675214128,23.0000000000,0.0000000000,1.0000000000,51.0000000000,36.0000000000,3.0000000000
1717675214142,31.0000000000,0.0000000000,1.0000000000,51.0000000000,36.0000000000,2.0000000000
1717675214143,31.0000000000,0.0000000000,1.0000000000,51.0000000000,55.0000000000,2.0000000000
1717675214143,31.0000000000,0.0000000000,1.0000000000,51.0000000000,82.0000000000,2.0000000000
1717675214144,31.0000000000,0.0000000000,1.0000000000,51.0000000000,82.0000000000,2.0000000000
1717675214144,31.0000000000,0.0000000000,1.0000000000,50.0000000000,81.0000000000,1.0000000000
1717675214144,30.0000000000,0.0000000000,1.0000000000,51.0000000000,81.0000000000,2.0000000000
1717675214144,30.0000000000,0.0000000000,1.0000000000,50.0000000000,80.0000000000,2.0000000000
1717675214145,30.0000000000,0.0000000000,1.0000000000,50.0000000000,79.0000000000,2.0000000000
1717675214145,30.0000000000,0.0000000000,1.0000000000,49.0000000000,79.0000000000,2.0000000000
1717675214145,29.0000000000,0.0000000000,1.0000000000,49.0000000000,79.0000000000,2.0000000000
1717675214146,29.0000000000,0.0000000000,1.0000000000,50.0000000000,79.0000000000,1.0000000000
1717675214146,29.0000000000,0.0000000000,1.0000000000,49.0000000000,78.0000000000,2.0000000000
1717675214147,29.0000000000,0.0000000000,1.0000000000,49.0000000000,78.0000000000,2.0000000000
1717675214147,29.0000000000,0.0000000000,1.0000000000,49.0000000000,78.0000000000,6.0000000000
1717675214147,29.0000000000,0.0000000000,1.0000000000,49.0000000000,77.0000000000,56.0000000000
1717675214165,29.0000000000,0.0000000000,1.0000000000,48.0000000000,76.0000000000,57.0000000000
1717675214166,29.0000000000,0.0000000000,1.0000000000,48.0000000000,76.0000000000,56.0000000000
1717675214166,28.0000000000,0.0000000000,1.0000000000,48.0000000000,76.0000000000,56.0000000000
1717675214166,28.0000000000,0.0000000000,1.0000000000,48.0000000000,76.0000000000,56.0000000000
1717675214166,28.0000000000,0.0000000000,1.0000000000,48.0000000000,76.0000000000,56.0000000000
1717675214166,28.0000000000,0.0000000000,1.0000000000,47.0000000000,75.0000000000,55.0000000000
1717675214166,28.0000000000,0.0000000000,1.0000000000,48.0000000000,75.0000000000,54.0000000000
1717675214167,28.0000000000,0.0000000000,1.0000000000,47.0000000000,74.0000000000,54.0000000000
1717675214167,28.0000000000,0.0000000000,1.0000000000,47.0000000000,73.0000000000,54.0000000000
1717675214167,28.0000000000,0.0000000000,1.0000000000,47.0000000000,73.0000000000,53.0000000000
1717675214167,27.0000000000,0.0000000000,1.0000000000,47.0000000000,73.0000000000,53.0000000000
1717675214167,27.0000000000,0.0000000000,1.0000000000,46.0000000000,72.0000000000,53.0000000000
1717675214167,27.0000000000,0.0000000000,1.0000000000,46.0000000000,71.0000000000,53.0000000000
1717675214167,27.0000000000,0.0000000000,1.0000000000,46.0000000000,71.0000000000,52.0000000000
1717675214185,27.0000000000,0.0000000000,1.0000000000,46.0000000000,71.0000000000,52.0000000000
1717675214185,26.0000000000,0.0000000000,1.0000000000,46.0000000000,71.0000000000,52.0000000000
1717675214185,26.0000000000,0.0000000000,1.0000000000,46.0000000000,71.0000000000,51.0000000000
1717675214185,26.0000000000,0.0000000000,1.0000000000,45.0000000000,70.0000000000,51.0000000000
1717675214185,25.0000000000,0.0000000000,1.0000000000,45.0000000000,70.0000000000,51.0000000000
1717675214186,25.0000000000,0.0000000000,1.0000000000,45.0000000000,70.0000000000,51.0000000000
1717675214186,25.0000000000,0.0000000000,1.0000000000,45.0000000000,70.0000000000,50.0000000000
1717675214186,25.0000000000,0.0000000000,1.0000000000,45.0000000000,70.0000000000,50.0000000000
1717675214186,25.0000000000,0.0000000000,1.0000000000,44.0000000000,69.0000000000,50.0000000000
1717675214186,25.0000000000,0.0000000000,1.0000000000,44.0000000000,68.0000000000,49.0000000000
1717675214186,25.0000000000,0.0000000000,1.0000000000,44.0000000000,68.0000000000,50.0000000000
1717675214201,25.0000000000,0.0000000000,1.0000000000,44.0000000000,68.0000000000,49.0000000000
1717675214203,24.0000000000,0.0000000000,1.0000000000,44.0000000000,67.0000000000,49.0000000000
1717675214203,25.0000000000,0.0000000000,1.0000000000,44.0000000000,67.0000000000,49.0000000000
1717675214203,24.0000000000,0.0000000000,1.0000000000,44.0000000000,67.0000000000,48.0000000000
1717675214204,24.0000000000,0.0000000000,1.0000000000,44.0000000000,67.0000000000,48.0000000000
1717675214205,24.0000000000,0.0000000000,1.0000000000,43.0000000000,66.0000000000,48.0000000000
1717675214206,24.0000000000,0.0000000000,1.0000000000,43.0000000000,65.0000000000,48.0000000000
1717675214206,24.0000000000,0.0000000000,1.0000000000,43.0000000000,65.0000000000,48.0000000000
1717675214207,24.0000000000,0.0000000000,1.0000000000,43.0000000000,65.0000000000,47.0000000000
1717675214207,24.0000000000,0.0000000000,1.0000000000,43.0000000000,65.0000000000,47.0000000000
1717675214208,24.0000000000,0.0000000000,3.0000000000,43.0000000000,65.0000000000,47.0000000000
1717675214208,24.0000000000,0.0000000000,10.0000000000,42.0000000000,63.0000000000,47.0000000000
1717675214209,24.0000000000,0.0000000000,11.0000000000,42.0000000000,64.0000000000,46.0000000000
1717675214209,24.0000000000,0.0000000000,11.0000000000,41.0000000000,63.0000000000,46.0000000000
1717675214209,23.0000000000,0.0000000000,11.0000000000,41.0000000000,63.0000000000,46.0000000000
1717675214209,24.0000000000,0.0000000000,10.0000000000,41.0000000000,63.0000000000,46.0000000000
1717675214210,24.0000000000,0.0000000000,10.0000000000,40.0000000000,63.0000000000,46.0000000000
1717675214222,23.0000000000,0.0000000000,10.0000000000,41.0000000000,63.0000000000,45.0000000000
1717675214222,23.0000000000,0.0000000000,9.0000000000,41.0000000000,89.0000000000,45.0000000000
1717675214222,23.0000000000,0.0000000000,9.0000000000,40.0000000000,88.0000000000,45.0000000000
1717675214222,22.0000000000,0.0000000000,9.0000000000,39.0000000000,88.0000000000,44.0000000000
1717675214222,22.0000000000,0.0000000000,9.0000000000,40.0000000000,87.0000000000,44.0000000000
1717675214222,22.0000000000,0.0000000000,9.0000000000,39.0000000000,92.0000000000,44.0000000000
1717675214222,22.0000000000,0.0000000000,9.0000000000,39.0000000000,91.0000000000,44.0000000000
1717675214222,22.0000000000,0.0000000000,9.0000000000,39.0000000000,90.0000000000,44.0000000000
1717675214223,22.0000000000,0.0000000000,9.0000000000,39.0000000000,90.0000000000,43.0000000000
1717675214238,22.0000000000,0.0000000000,9.0000000000,39.0000000000,89.0000000000,43.0000000000
1717675214239,22.0000000000,0.0000000000,9.0000000000,39.0000000000,89.0000000000,43.0000000000
1717675214239,22.0000000000,0.0000000000,9.0000000000,39.0000000000,88.0000000000,42.0000000000
1717675214239,22.0000000000,0.0000000000,10.0000000000,39.0000000000,88.0000000000,43.0000000000
1717675214239,39.0000000000,0.0000000000,9.0000000000,39.0000000000,88.0000000000,42.0000000000
1717675214239,39.0000000000,0.0000000000,9.0000000000,39.0000000000,88.0000000000,41.0000000000
1717675214239,39.0000000000,0.0000000000,9.0000000000,39.0000000000,87.0000000000,41.0000000000
1717675214239,39.0000000000,0.0000000000,9.0000000000,39.0000000000,87.0000000000,41.0000000000
1717675214239,38.0000000000,0.0000000000,9.0000000000,38.0000000000,86.0000000000,41.0000000000
1717675214240,38.0000000000,0.0000000000,9.0000000000,38.0000000000,96.0000000000,40.0000000000
1717675214240,38.0000000000,0.0000000000,9.0000000000,38.0000000000,152.0000000000,41.0000000000
1717675214240,38.0000000000,0.0000000000,8.0000000000,38.0000000000,151.0000000000,40.0000000000
1717675214240,38.0000000000,0.0000000000,9.0000000000,38.0000000000,150.0000000000,40.0000000000
1717675214256,83.0000000000,0.0000000000,9.0000000000,38.0000000000,149.0000000000,39.0000000000
1717675214257,152.0000000000,0.0000000000,9.0000000000,38.0000000000,147.0000000000,39.0000000000
1717675214257,195.0000000000,0.0000000000,9.0000000000,37.0000000000,147.0000000000,39.0000000000
1717675214257,193.0000000000,0.0000000000,8.0000000000,38.0000000000,145.0000000000,39.0000000000
1717675214257,192.0000000000,0.0000000000,8.0000000000,37.0000000000,145.0000000000,39.0000000000
1717675214257,190.0000000000,0.0000000000,8.0000000000,36.0000000000,144.0000000000,39.0000000000
1717675214257,189.0000000000,0.0000000000,7.0000000000,36.0000000000,143.0000000000,39.0000000000
1717675214258,188.0000000000,0.0000000000,7.0000000000,36.0000000000,143.0000000000,39.0000000000
1717675214258,187.0000000000,0.0000000000,7.0000000000,36.0000000000,142.0000000000,39.0000000000
1717675214258,185.0000000000,0.0000000000,8.0000000000,36.0000000000,141.0000000000,38.0000000000
1717675214258,184.0000000000,0.0000000000,7.0000000000,36.0000000000,140.0000000000,38.0000000000
1717675214272,183.0000000000,0.0000000000,9.0000000000,35.0000000000,140.0000000000,38.0000000000
1717675214273,182.0000000000,0.0000000000,30.0000000000,35.0000000000,139.0000000000,38.0000000000
1717675214273,180.0000000000,0.0000000000,29.0000000000,35.0000000000,138.0000000000,38.0000000000
1717675214273,179.0000000000,0.0000000000,29.0000000000,35.0000000000,136.0000000000,37.0000000000
1717675214273,179.0000000000,0.0000000000,29.0000000000,35.0000000000,135.0000000000,37.0000000000
1717675214273,177.0000000000,0.0000000000,29.0000000000,35.0000000000,135.0000000000,37.0000000000
1717675214273,219.0000000000,1.0000000000,29.0000000000,35.0000000000,135.0000000000,36.0000000000
1717675214274,216.0000000000,6.0000000000,28.0000000000,35.0000000000,134.0000000000,37.0000000000
1717675214274,215.0000000000,6.0000000000,28.0000000000,34.0000000000,159.0000000000,36.0000000000
1717675214289,212.0000000000,6.0000000000,28.0000000000,34.0000000000,157.0000000000,36.0000000000
1717675214289,211.0000000000,6.0000000000,28.0000000000,88.0000000000,160.0000000000,35.0000000000
1717675214289,209.0000000000,6.0000000000,28.0000000000,87.0000000000,159.0000000000,35.0000000000
1717675214289,208.0000000000,6.0000000000,65.0000000000,86.0000000000,159.0000000000,35.0000000000
1717675214290,207.0000000000,6.0000000000,64.0000000000,86.0000000000,158.0000000000,35.0000000000
1717675214290,206.0000000000,6.0000000000,63.0000000000,85.0000000000,156.0000000000,35.0000000000
1717675214290,204.0000000000,6.0000000000,63.0000000000,84.0000000000,156.0000000000,35.0000000000
1717675214290,203.0000000000,6.0000000000,63.0000000000,83.0000000000,154.0000000000,35.0000000000
1717675214290,201.0000000000,6.0000000000,63.0000000000,83.0000000000,153.0000000000,35.0000000000
1717675214290,199.0000000000,6.0000000000,62.0000000000,83.0000000000,153.0000000000,34.0000000000
1717675214304,199.0000000000,6.0000000000,62.0000000000,83.0000000000,152.0000000000,34.0000000000
1717675214305,198.0000000000,6.0000000000,61.0000000000,82.0000000000,151.0000000000,34.0000000000
1717675214305,197.0000000000,5.0000000000,60.0000000000,81.0000000000,150.0000000000,34.0000000000
1717675214305,195.0000000000,46.0000000000,60.0000000000,81.0000000000,149.0000000000,33.0000000000
1717675214305,195.0000000000,57.0000000000,60.0000000000,80.0000000000,148.0000000000,33.0000000000
1717675214305,193.0000000000,57.0000000000,60.0000000000,79.0000000000,147.0000000000,33.0000000000
1717675214305,192.0000000000,56.0000000000,60.0000000000,79.0000000000,146.0000000000,33.0000000000
1717675214305,191.0000000000,56.0000000000,59.0000000000,79.0000000000,145.0000000000,33.0000000000
1717675214306,214.0000000000,55.0000000000,59.0000000000,78.0000000000,144.0000000000,32.0000000000
1717675214331,231.0000000000,55.0000000000,58.0000000000,78.0000000000,143.0000000000,32.0000000000
1717675214332,228.0000000000,54.0000000000,58.0000000000,77.0000000000,143.0000000000,31.0000000000
1717675214333,227.0000000000,54.0000000000,57.0000000000,76.0000000000,142.0000000000,31.0000000000
1717675214333,225.0000000000,54.0000000000,57.0000000000,76.0000000000,141.0000000000,31.0000000000
1717675214333,224.0000000000,54.0000000000,57.0000000000,76.0000000000,140.0000000000,31.0000000000
1717675214333,223.0000000000,52.0000000000,56.0000000000,75.0000000000,140.0000000000,31.0000000000
1717675214334,220.0000000000,52.0000000000,56.0000000000,75.0000000000,139.0000000000,31.0000000000
1717675214334,220.0000000000,52.0000000000,56.0000000000,75.0000000000,137.0000000000,31.0000000000
1717675214334,217.0000000000,51.0000000000,56.0000000000,73.0000000000,137.0000000000,31.0000000000
1717675214334,216.0000000000,51.0000000000,55.0000000000,73.0000000000,135.0000000000,31.0000000000
1717675214335,215.0000000000,51.0000000000,55.0000000000,73.0000000000,135.0000000000,30.0000000000
1717675214335,214.0000000000,51.0000000000,55.0000000000,71.0000000000,135.0000000000,30.0000000000
1717675214335,212.0000000000,50.0000000000,54.0000000000,71.0000000000,134.0000000000,30.0000000000
1717675214335,211.0000000000,50.0000000000,54.0000000000,71.0000000000,134.0000000000,30.0000000000
1717675214336,209.0000000000,84.0000000000,53.0000000000,71.0000000000,132.0000000000,30.0000000000
1717675214336,208.0000000000,83.0000000000,53.0000000000,71.0000000000,131.0000000000,30.0000000000
1717675214357,207.0000000000,83.0000000000,52.0000000000,70.0000000000,131.0000000000,30.0000000000
1717675214359,206.0000000000,83.0000000000,52.0000000000,70.0000000000,130.0000000000,29.0000000000
1717675214360,204.0000000000,82.0000000000,52.0000000000,70.0000000000,129.0000000000,29.0000000000
1717675214360,203.0000000000,81.0000000000,51.0000000000,69.0000000000,129.0000000000,28.0000000000
1717675214360,201.0000000000,81.0000000000,51.0000000000,68.0000000000,127.0000000000,29.0000000000
1717675214361,199.0000000000,80.0000000000,51.0000000000,68.0000000000,127.0000000000,29.0000000000
1717675214361,199.0000000000,79.0000000000,51.0000000000,67.0000000000,126.0000000000,28.0000000000
1717675214361,198.0000000000,79.0000000000,50.0000000000,67.0000000000,126.0000000000,28.0000000000
1717675214361,197.0000000000,79.0000000000,50.0000000000,67.0000000000,125.0000000000,28.0000000000
1717675214362,195.0000000000,78.0000000000,50.0000000000,66.0000000000,177.0000000000,28.0000000000
1717675214362,195.0000000000,78.0000000000,50.0000000000,65.0000000000,214.0000000000,28.0000000000
1717675214362,193.0000000000,77.0000000000,49.0000000000,66.0000000000,211.0000000000,27.0000000000
1717675214362,192.0000000000,77.0000000000,52.0000000000,65.0000000000,210.0000000000,28.0000000000
1717675214363,191.0000000000,76.0000000000,52.0000000000,64.0000000000,208.0000000000,27.0000000000
1717675214363,190.0000000000,76.0000000000,52.0000000000,65.0000000000,207.0000000000,27.0000000000
1717675214363,188.0000000000,76.0000000000,51.0000000000,64.0000000000,206.0000000000,30.0000000000
1717675214383,188.0000000000,75.0000000000,51.0000000000,63.0000000000,204.0000000000,31.0000000000
1717675214384,186.0000000000,75.0000000000,50.0000000000,63.0000000000,203.0000000000,31.0000000000
1717675214384,185.0000000000,74.0000000000,51.0000000000,63.0000000000,201.0000000000,31.0000000000
1717675214384,184.0000000000,73.0000000000,50.0000000000,67.0000000000,199.0000000000,31.0000000000
1717675214385,183.0000000000,72.0000000000,50.0000000000,67.0000000000,200.0000000000,31.0000000000
1717675214385,182.0000000000,71.0000000000,49.0000000000,66.0000000000,199.0000000000,31.0000000000
1717675214385,181.0000000000,71.0000000000,49.0000000000,66.0000000000,198.0000000000,31.0000000000
1717675214385,179.0000000000,71.0000000000,49.0000000000,65.0000000000,196.0000000000,30.0000000000
1717675214385,179.0000000000,71.0000000000,48.0000000000,65.0000000000,195.0000000000,30.0000000000
1717675214385,178.0000000000,71.0000000000,48.0000000000,63.0000000000,194.0000000000,30.0000000000
1717675214386,177.0000000000,71.0000000000,48.0000000000,64.0000000000,193.0000000000,30.0000000000
1717675214386,176.0000000000,70.0000000000,48.0000000000,63.0000000000,192.0000000000,30.0000000000
1717675214404,175.0000000000,69.0000000000,48.0000000000,63.0000000000,191.0000000000,30.0000000000
1717675214405,174.0000000000,69.0000000000,48.0000000000,63.0000000000,190.0000000000,30.0000000000
1717675214405,172.0000000000,68.0000000000,47.0000000000,63.0000000000,188.0000000000,29.0000000000
1717675214406,175.0000000000,68.0000000000,47.0000000000,63.0000000000,188.0000000000,29.0000000000
1717675214406,173.0000000000,67.0000000000,47.0000000000,62.0000000000,187.0000000000,29.0000000000
1717675214406,172.0000000000,67.0000000000,47.0000000000,62.0000000000,185.0000000000,28.0000000000
1717675214407,172.0000000000,67.0000000000,46.0000000000,62.0000000000,184.0000000000,28.0000000000
1717675214407,169.0000000000,67.0000000000,45.0000000000,62.0000000000,183.0000000000,28.0000000000
1717675214407,169.0000000000,66.0000000000,45.0000000000,61.0000000000,182.0000000000,28.0000000000
1717675214407,167.0000000000,65.0000000000,45.0000000000,60.0000000000,181.0000000000,28.0000000000
1717675214407,167.0000000000,65.0000000000,44.0000000000,60.0000000000,179.0000000000,28.0000000000
1717675214432,166.0000000000,65.0000000000,44.0000000000,60.0000000000,179.0000000000,27.0000000000
1717675214433,166.0000000000,65.0000000000,44.0000000000,60.0000000000,178.0000000000,27.0000000000
1717675214433,165.0000000000,64.0000000000,44.0000000000,59.0000000000,177.0000000000,27.0000000000
1717675214434,163.0000000000,63.0000000000,44.0000000000,59.0000000000,176.0000000000,27.0000000000
1717675214435,163.0000000000,63.0000000000,44.0000000000,59.0000000000,175.0000000000,27.0000000000
1717675214436,162.0000000000,63.0000000000,43.0000000000,57.0000000000,174.0000000000,27.0000000000
1717675214437,161.0000000000,63.0000000000,43.0000000000,58.0000000000,173.0000000000,27.0000000000
1717675214437,159.0000000000,62.0000000000,49.0000000000,57.0000000000,172.0000000000,26.0000000000
1717675214438,159.0000000000,62.0000000000,52.0000000000,57.0000000000,171.0000000000,26.0000000000
1717675214438,158.0000000000,62.0000000000,51.0000000000,56.0000000000,169.0000000000,26.0000000000
1717675214440,158.0000000000,62.0000000000,51.0000000000,56.0000000000,169.0000000000,25.0000000000
1717675214440,156.0000000000,61.0000000000,51.0000000000,56.0000000000,167.0000000000,25.0000000000
1717675214441,156.0000000000,60.0000000000,49.0000000000,56.0000000000,167.0000000000,25.0000000000
1717675214441,156.0000000000,60.0000000000,49.0000000000,56.0000000000,166.0000000000,25.0000000000
1717675214442,283.0000000000,60.0000000000,49.0000000000,55.0000000000,165.0000000000,25.0000000000
1717675214442,283.0000000000,60.0000000000,49.0000000000,55.0000000000,164.0000000000,24.0000000000
1717675214442,280.0000000000,59.0000000000,49.0000000000,55.0000000000,163.0000000000,25.0000000000
1717675214442,278.0000000000,59.0000000000,48.0000000000,54.0000000000,162.0000000000,24.0000000000
1717675214443,275.0000000000,59.0000000000,48.0000000000,54.0000000000,161.0000000000,24.0000000000
1717675214443,273.0000000000,59.0000000000,48.0000000000,91.0000000000,160.0000000000,24.0000000000
1717675214443,271.0000000000,57.0000000000,48.0000000000,89.0000000000,159.0000000000,24.0000000000
1717675214459,270.0000000000,57.0000000000,48.0000000000,89.0000000000,159.0000000000,24.0000000000
1717675214460,268.0000000000,57.0000000000,48.0000000000,88.0000000000,158.0000000000,24.0000000000
1717675214460,265.0000000000,57.0000000000,47.0000000000,88.0000000000,157.0000000000,24.0000000000
1717675214460,263.0000000000,56.0000000000,47.0000000000,87.0000000000,156.0000000000,24.0000000000
1717675214461,263.0000000000,56.0000000000,46.0000000000,87.0000000000,156.0000000000,24.0000000000
1717675214461,260.0000000000,56.0000000000,46.0000000000,86.0000000000,155.0000000000,24.0000000000
1717675214461,259.0000000000,56.0000000000,46.0000000000,85.0000000000,153.0000000000,24.0000000000
1717675214461,257.0000000000,55.0000000000,45.0000000000,85.0000000000,152.0000000000,23.0000000000
1717675214461,255.0000000000,56.0000000000,44.0000000000,84.0000000000,152.0000000000,24.0000000000
1717675214461,254.0000000000,55.0000000000,44.0000000000,83.0000000000,152.0000000000,23.0000000000
1717675214461,252.0000000000,54.0000000000,45.0000000000,83.0000000000,150.0000000000,23.0000000000
1717675214477,250.0000000000,54.0000000000,44.0000000000,83.0000000000,150.0000000000,23.0000000000
1717675214478,248.0000000000,54.0000000000,44.0000000000,82.0000000000,148.0000000000,23.0000000000
1717675214478,248.0000000000,53.0000000000,44.0000000000,81.0000000000,147.0000000000,23.0000000000
1717675214479,246.0000000000,54.0000000000,43.0000000000,81.0000000000,147.0000000000,22.0000000000
1717675214479,243.0000000000,53.0000000000,43.0000000000,79.0000000000,146.0000000000,22.0000000000
1717675214479,243.0000000000,52.0000000000,43.0000000000,79.0000000000,145.0000000000,22.0000000000
1717675214479,241.0000000000,52.0000000000,42.0000000000,79.0000000000,145.0000000000,22.0000000000
1717675214480,240.0000000000,51.0000000000,42.0000000000,79.0000000000,143.0000000000,21.0000000000
1717675214480,238.0000000000,51.0000000000,42.0000000000,78.0000000000,143.0000000000,22.0000000000
1717675214501,237.0000000000,51.0000000000,42.0000000000,78.0000000000,199.0000000000,22.0000000000
1717675214503,236.0000000000,51.0000000000,42.0000000000,78.0000000000,198.0000000000,22.0000000000
1717675214503,233.0000000000,51.0000000000,41.0000000000,77.0000000000,196.0000000000,21.0000000000
1717675214503,231.0000000000,50.0000000000,41.0000000000,76.0000000000,195.0000000000,22.0000000000
1717675214504,231.0000000000,50.0000000000,41.0000000000,76.0000000000,193.0000000000,22.0000000000
1717675214504,231.0000000000,49.0000000000,40.0000000000,76.0000000000,192.0000000000,21.0000000000
1717675214505,230.0000000000,50.0000000000,40.0000000000,75.0000000000,191.0000000000,22.0000000000
1717675214505,228.0000000000,49.0000000000,39.0000000000,75.0000000000,190.0000000000,21.0000000000
1717675214505,227.0000000000,48.0000000000,39.0000000000,74.0000000000,189.0000000000,21.0000000000
1717675214505,225.0000000000,49.0000000000,39.0000000000,73.0000000000,188.0000000000,21.0000000000
1717675214505,224.0000000000,48.0000000000,40.0000000000,74.0000000000,187.0000000000,20.0000000000
1717675214506,223.0000000000,48.0000000000,48.0000000000,73.0000000000,185.0000000000,20.0000000000
1717675214506,222.0000000000,123.0000000000,48.0000000000,73.0000000000,184.0000000000,20.0000000000
1717675214506,220.0000000000,129.0000000000,48.0000000000,71.0000000000,184.0000000000,20.0000000000
1717675214507,219.0000000000,127.0000000000,48.0000000000,71.0000000000,182.0000000000,20.0000000000
1717675214507,217.0000000000,127.0000000000,47.0000000000,71.0000000000,180.0000000000,20.0000000000
1717675214523,216.0000000000,126.0000000000,48.0000000000,71.0000000000,179.0000000000,20.0000000000
1717675214524,215.0000000000,125.0000000000,47.0000000000,70.0000000000,178.0000000000,20.0000000000
1717675214524,214.0000000000,124.0000000000,47.0000000000,70.0000000000,177.0000000000,19.0000000000
1717675214524,211.0000000000,123.0000000000,47.0000000000,70.0000000000,176.0000000000,19.0000000000
1717675214524,211.0000000000,122.0000000000,46.0000000000,69.0000000000,175.0000000000,19.0000000000
1717675214524,209.0000000000,121.0000000000,46.0000000000,68.0000000000,174.0000000000,19.0000000000
1717675214524,208.0000000000,120.0000000000,46.0000000000,67.0000000000,173.0000000000,19.0000000000
1717675214525,207.0000000000,120.0000000000,45.0000000000,68.0000000000,172.0000000000,19.0000000000
1717675214525,206.0000000000,119.0000000000,45.0000000000,67.0000000000,171.0000000000,19.0000000000
1717675214539,204.0000000000,118.0000000000,45.0000000000,67.0000000000,169.0000000000,19.0000000000
1717675214539,203.0000000000,117.0000000000,44.0000000000,67.0000000000,167.0000000000,19.0000000000
1717675214540,201.0000000000,116.0000000000,44.0000000000,67.0000000000,167.0000000000,19.0000000000
1717675214540,201.0000000000,115.0000000000,44.0000000000,65.0000000000,166.0000000000,19.0000000000
1717675214540,199.0000000000,115.0000000000,43.0000000000,65.0000000000,166.0000000000,19.0000000000
1717675214540,198.0000000000,115.0000000000,43.0000000000,65.0000000000,164.0000000000,19.0000000000
1717675214540,197.0000000000,113.0000000000,43.0000000000,64.0000000000,163.0000000000,19.0000000000
1717675214540,196.0000000000,113.0000000000,43.0000000000,64.0000000000,162.0000000000,19.0000000000
1717675214540,195.0000000000,112.0000000000,43.0000000000,63.0000000000,161.0000000000,19.0000000000
1717675214560,193.0000000000,112.0000000000,43.0000000000,63.0000000000,160.0000000000,18.0000000000
1717675214561,192.0000000000,111.0000000000,42.0000000000,63.0000000000,159.0000000000,19.0000000000
1717675214561,192.0000000000,110.0000000000,41.0000000000,63.0000000000,159.0000000000,19.0000000000
1717675214562,190.0000000000,109.0000000000,41.0000000000,62.0000000000,158.0000000000,18.0000000000
1717675214562,190.0000000000,108.0000000000,41.0000000000,62.0000000000,157.0000000000,18.0000000000
1717675214562,188.0000000000,108.0000000000,40.0000000000,61.0000000000,156.0000000000,18.0000000000
1717675214563,187.0000000000,107.0000000000,39.0000000000,61.0000000000,155.0000000000,18.0000000000
1717675214563,186.0000000000,107.0000000000,39.0000000000,61.0000000000,155.0000000000,18.0000000000
1717675214563,185.0000000000,106.0000000000,39.0000000000,60.0000000000,153.0000000000,18.0000000000
1717675214564,184.0000000000,104.0000000000,39.0000000000,60.0000000000,152.0000000000,17.0000000000
1717675214564,183.0000000000,103.0000000000,39.0000000000,60.0000000000,198.0000000000,17.0000000000
1717675214564,182.0000000000,103.0000000000,39.0000000000,60.0000000000,198.0000000000,39.0000000000
1717675214565,181.0000000000,103.0000000000,39.0000000000,59.0000000000,195.0000000000,39.0000000000
1717675214595,179.0000000000,103.0000000000,39.0000000000,58.0000000000,194.0000000000,39.0000000000
1717675214596,178.0000000000,102.0000000000,39.0000000000,59.0000000000,192.0000000000,38.0000000000
1717675214596,177.0000000000,101.0000000000,38.0000000000,57.0000000000,191.0000000000,39.0000000000
1717675214596,176.0000000000,101.0000000000,38.0000000000,57.0000000000,190.0000000000,38.0000000000
1717675214596,176.0000000000,100.0000000000,38.0000000000,57.0000000000,188.0000000000,38.0000000000
1717675214596,175.0000000000,99.0000000000,38.0000000000,56.0000000000,188.0000000000,38.0000000000
1717675214596,173.0000000000,99.0000000000,37.0000000000,56.0000000000,187.0000000000,38.0000000000
1717675214597,172.0000000000,98.0000000000,38.0000000000,56.0000000000,185.0000000000,38.0000000000
1717675214597,172.0000000000,98.0000000000,36.0000000000,56.0000000000,184.0000000000,37.0000000000
1717675214597,177.0000000000,97.0000000000,37.0000000000,56.0000000000,184.0000000000,39.0000000000
1717675214597,317.0000000000,97.0000000000,36.0000000000,56.0000000000,182.0000000000,49.0000000000
1717675214597,347.0000000000,96.0000000000,35.0000000000,55.0000000000,181.0000000000,48.0000000000
1717675214597,344.0000000000,96.0000000000,35.0000000000,55.0000000000,179.0000000000,48.0000000000
1717675214597,339.0000000000,95.0000000000,35.0000000000,54.0000000000,179.0000000000,48.0000000000
1717675214597,337.0000000000,95.0000000000,35.0000000000,54.0000000000,177.0000000000,47.0000000000
1717675214597,335.0000000000,94.0000000000,35.0000000000,54.0000000000,177.0000000000,47.0000000000
1717675214598,332.0000000000,94.0000000000,35.0000000000,54.0000000000,176.0000000000,47.0000000000
1717675214598,329.0000000000,93.0000000000,35.0000000000,53.0000000000,175.0000000000,46.0000000000
1717675214612,327.0000000000,92.0000000000,35.0000000000,52.0000000000,174.0000000000,46.0000000000
1717675214613,325.0000000000,92.0000000000,35.0000000000,52.0000000000,172.0000000000,45.0000000000
1717675214613,323.0000000000,92.0000000000,35.0000000000,52.0000000000,172.0000000000,46.0000000000
1717675214613,319.0000000000,91.0000000000,33.0000000000,51.0000000000,171.0000000000,45.0000000000
1717675214613,318.0000000000,91.0000000000,34.0000000000,51.0000000000,169.0000000000,44.0000000000
1717675214613,316.0000000000,89.0000000000,33.0000000000,51.0000000000,167.0000000000,44.0000000000
1717675214613,315.0000000000,89.0000000000,33.0000000000,51.0000000000,167.0000000000,44.0000000000
1717675214613,416.0000000000,152.0000000000,33.0000000000,137.0000000000,167.0000000000,44.0000000000
1717675214613,412.0000000000,162.0000000000,33.0000000000,135.0000000000,165.0000000000,44.0000000000
1717675214630,408.0000000000,159.0000000000,33.0000000000,135.0000000000,163.0000000000,44.0000000000
1717675214631,403.0000000000,158.0000000000,32.0000000000,133.0000000000,163.0000000000,43.0000000000
1717675214631,399.0000000000,157.0000000000,33.0000000000,131.0000000000,162.0000000000,43.0000000000
1717675214631,396.0000000000,156.0000000000,32.0000000000,131.0000000000,161.0000000000,43.0000000000
1717675214631,391.0000000000,155.0000000000,31.0000000000,130.0000000000,159.0000000000,42.0000000000
1717675214631,390.0000000000,153.0000000000,32.0000000000,129.0000000000,159.0000000000,42.0000000000
1717675214631,386.0000000000,152.0000000000,31.0000000000,128.0000000000,159.0000000000,41.0000000000
1717675214631,383.0000000000,151.0000000000,31.0000000000,127.0000000000,157.0000000000,41.0000000000
1717675214646,380.0000000000,150.0000000000,31.0000000000,126.0000000000,156.0000000000,39.0000000000
1717675214646,377.0000000000,149.0000000000,31.0000000000,126.0000000000,155.0000000000,40.0000000000
1717675214646,374.0000000000,148.0000000000,31.0000000000,124.0000000000,154.0000000000,39.0000000000
1717675214647,371.0000000000,147.0000000000,31.0000000000,124.0000000000,153.0000000000,39.0000000000
1717675214647,368.0000000000,146.0000000000,30.0000000000,123.0000000000,152.0000000000,39.0000000000
1717675214647,365.0000000000,145.0000000000,31.0000000000,122.0000000000,152.0000000000,39.0000000000
1717675214647,362.0000000000,143.0000000000,30.0000000000,121.0000000000,150.0000000000,39.0000000000
1717675214647,359.0000000000,143.0000000000,30.0000000000,120.0000000000,149.0000000000,39.0000000000
1717675214647,356.0000000000,142.0000000000,30.0000000000,120.0000000000,148.0000000000,39.0000000000
1717675214672,354.0000000000,141.0000000000,30.0000000000,120.0000000000,148.0000000000,38.0000000000
1717675214673,351.0000000000,140.0000000000,29.0000000000,118.0000000000,147.0000000000,38.0000000000
1717675214673,348.0000000000,140.0000000000,30.0000000000,117.0000000000,146.0000000000,38.0000000000
1717675214674,345.0000000000,138.0000000000,29.0000000000,116.0000000000,145.0000000000,38.0000000000
1717675214674,344.0000000000,137.0000000000,29.0000000000,115.0000000000,143.0000000000,38.0000000000
1717675214674,340.0000000000,135.0000000000,28.0000000000,115.0000000000,143.0000000000,38.0000000000
1717675214674,338.0000000000,135.0000000000,29.0000000000,114.0000000000,143.0000000000,36.0000000000
1717675214674,335.0000000000,135.0000000000,28.0000000000,113.0000000000,142.0000000000,36.0000000000
1717675214674,333.0000000000,134.0000000000,28.0000000000,113.0000000000,141.0000000000,36.0000000000
1717675214674,331.0000000000,133.0000000000,28.0000000000,112.0000000000,140.0000000000,36.0000000000
1717675214674,327.0000000000,131.0000000000,28.0000000000,112.0000000000,139.0000000000,36.0000000000
1717675214674,326.0000000000,131.0000000000,28.0000000000,111.0000000000,138.0000000000,35.0000000000
1717675214675,323.0000000000,130.0000000000,28.0000000000,110.0000000000,137.0000000000,35.0000000000
1717675214675,321.0000000000,129.0000000000,28.0000000000,109.0000000000,136.0000000000,35.0000000000
1717675214690,319.0000000000,128.0000000000,28.0000000000,108.0000000000,135.0000000000,35.0000000000
1717675214691,317.0000000000,127.0000000000,27.0000000000,108.0000000000,135.0000000000,35.0000000000
1717675214691,315.0000000000,127.0000000000,31.0000000000,107.0000000000,135.0000000000,34.0000000000
1717675214691,312.0000000000,126.0000000000,36.0000000000,105.0000000000,134.0000000000,34.0000000000
1717675214692,311.0000000000,126.0000000000,36.0000000000,105.0000000000,133.0000000000,34.0000000000
1717675214692,308.0000000000,125.0000000000,36.0000000000,105.0000000000,132.0000000000,34.0000000000
1717675214692,306.0000000000,124.0000000000,35.0000000000,103.0000000000,131.0000000000,33.0000000000
1717675214692,304.0000000000,123.0000000000,35.0000000000,103.0000000000,131.0000000000,33.0000000000
1717675214692,302.0000000000,123.0000000000,35.0000000000,103.0000000000,130.0000000000,33.0000000000
1717675214706,300.0000000000,121.0000000000,35.0000000000,102.0000000000,129.0000000000,32.0000000000
1717675214707,298.0000000000,121.0000000000,35.0000000000,102.0000000000,128.0000000000,33.0000000000
1717675214707,295.0000000000,120.0000000000,34.0000000000,101.0000000000,127.0000000000,33.0000000000
1717675214707,294.0000000000,120.0000000000,34.0000000000,100.0000000000,127.0000000000,31.0000000000
1717675214707,291.0000000000,119.0000000000,33.0000000000,99.0000000000,127.0000000000,32.0000000000
1717675214707,290.0000000000,118.0000000000,38.0000000000,99.0000000000,125.0000000000,31.0000000000
1717675214708,287.0000000000,117.0000000000,37.0000000000,99.0000000000,125.0000000000,31.0000000000
1717675214708,286.0000000000,117.0000000000,38.0000000000,98.0000000000,124.0000000000,31.0000000000
1717675214734,284.0000000000,115.0000000000,37.0000000000,97.0000000000,124.0000000000,31.0000000000
1717675214736,283.0000000000,115.0000000000,37.0000000000,96.0000000000,123.0000000000,31.0000000000
1717675214736,281.0000000000,115.0000000000,36.0000000000,96.0000000000,123.0000000000,31.0000000000
1717675214736,280.0000000000,113.0000000000,43.0000000000,96.0000000000,121.0000000000,31.0000000000
1717675214737,278.0000000000,113.0000000000,42.0000000000,95.0000000000,120.0000000000,30.0000000000
1717675214737,275.0000000000,112.0000000000,41.0000000000,95.0000000000,120.0000000000,30.0000000000
1717675214738,274.0000000000,112.0000000000,41.0000000000,93.0000000000,120.0000000000,30.0000000000
1717675214738,272.0000000000,111.0000000000,41.0000000000,93.0000000000,119.0000000000,30.0000000000
1717675214739,319.0000000000,111.0000000000,41.0000000000,93.0000000000,118.0000000000,30.0000000000
1717675214740,316.0000000000,110.0000000000,40.0000000000,92.0000000000,118.0000000000,30.0000000000
1717675214740,312.0000000000,109.0000000000,40.0000000000,92.0000000000,117.0000000000,29.0000000000
1717675214740,311.0000000000,109.0000000000,39.0000000000,91.0000000000,116.0000000000,28.0000000000
1717675214741,308.0000000000,108.0000000000,39.0000000000,91.0000000000,115.0000000000,28.0000000000
1717675214741,306.0000000000,108.0000000000,39.0000000000,89.0000000000,115.0000000000,29.0000000000
1717675214742,304.0000000000,107.0000000000,39.0000000000,89.0000000000,115.0000000000,28.0000000000
1717675214742,301.0000000000,106.0000000000,39.0000000000,88.0000000000,114.0000000000,28.0000000000
1717675214742,299.0000000000,105.0000000000,39.0000000000,88.0000000000,113.0000000000,28.0000000000
1717675214742,297.0000000000,105.0000000000,39.0000000000,88.0000000000,113.0000000000,28.0000000000
1717675214764,295.0000000000,103.0000000000,38.0000000000,87.0000000000,112.0000000000,28.0000000000
1717675214766,293.0000000000,103.0000000000,38.0000000000,87.0000000000,112.0000000000,28.0000000000
1717675214766,291.0000000000,103.0000000000,38.0000000000,87.0000000000,111.0000000000,28.0000000000
1717675214766,287.0000000000,103.0000000000,38.0000000000,86.0000000000,110.0000000000,27.0000000000
1717675214766,287.0000000000,102.0000000000,38.0000000000,86.0000000000,135.0000000000,28.0000000000
1717675214767,284.0000000000,102.0000000000,37.0000000000,108.0000000000,134.0000000000,27.0000000000
1717675214767,283.0000000000,100.0000000000,37.0000000000,108.0000000000,132.0000000000,27.0000000000
1717675214767,280.0000000000,99.0000000000,36.0000000000,107.0000000000,131.0000000000,27.0000000000
1717675214767,279.0000000000,99.0000000000,36.0000000000,105.0000000000,131.0000000000,27.0000000000
1717675214768,276.0000000000,99.0000000000,36.0000000000,105.0000000000,135.0000000000,27.0000000000
1717675214768,275.0000000000,99.0000000000,35.0000000000,103.0000000000,135.0000000000,26.0000000000
1717675214768,273.0000000000,97.0000000000,36.0000000000,103.0000000000,134.0000000000,26.0000000000
1717675214769,271.0000000000,97.0000000000,35.0000000000,103.0000000000,133.0000000000,26.0000000000
1717675214769,270.0000000000,97.0000000000,35.0000000000,103.0000000000,131.0000000000,25.0000000000
1717675214769,268.0000000000,96.0000000000,35.0000000000,101.0000000000,131.0000000000,25.0000000000
1717675214787,265.0000000000,96.0000000000,35.0000000000,100.0000000000,130.0000000000,25.0000000000
1717675214789,263.0000000000,95.0000000000,35.0000000000,100.0000000000,129.0000000000,25.0000000000
1717675214789,263.0000000000,95.0000000000,35.0000000000,99.0000000000,129.0000000000,25.0000000000
1717675214789,262.0000000000,94.0000000000,34.0000000000,99.0000000000,127.0000000000,25.0000000000
1717675214790,259.0000000000,94.0000000000,34.0000000000,98.0000000000,127.0000000000,25.0000000000
1717675214790,258.0000000000,93.0000000000,33.0000000000,97.0000000000,127.0000000000,24.0000000000
1717675214790,256.0000000000,92.0000000000,34.0000000000,97.0000000000,126.0000000000,24.0000000000
1717675214790,255.0000000000,92.0000000000,34.0000000000,96.0000000000,125.0000000000,24.0000000000
1717675214791,254.0000000000,92.0000000000,33.0000000000,96.0000000000,124.0000000000,24.0000000000
1717675214791,252.0000000000,92.0000000000,33.0000000000,127.0000000000,124.0000000000,24.0000000000
1717675214791,251.0000000000,91.0000000000,33.0000000000,127.0000000000,123.0000000000,24.0000000000
1717675214804,249.0000000000,91.0000000000,33.0000000000,126.0000000000,121.0000000000,24.0000000000
1717675214806,248.0000000000,89.0000000000,32.0000000000,125.0000000000,120.0000000000,24.0000000000
1717675214806,247.0000000000,89.0000000000,32.0000000000,124.0000000000,120.0000000000,24.0000000000
1717675214806,244.0000000000,88.0000000000,31.0000000000,124.0000000000,120.0000000000,24.0000000000
1717675214806,243.0000000000,88.0000000000,31.0000000000,123.0000000000,120.0000000000,24.0000000000
1717675214806,242.0000000000,88.0000000000,31.0000000000,121.0000000000,118.0000000000,23.0000000000
1717675214806,241.0000000000,87.0000000000,31.0000000000,121.0000000000,118.0000000000,23.0000000000
1717675214806,240.0000000000,87.0000000000,31.0000000000,120.0000000000,116.0000000000,22.0000000000
1717675214806,238.0000000000,87.0000000000,31.0000000000,120.0000000000,115.0000000000,28.0000000000
1717675214819,236.0000000000,86.0000000000,31.0000000000,119.0000000000,115.0000000000,48.0000000000
1717675214820,235.0000000000,85.0000000000,31.0000000000,118.0000000000,115.0000000000,48.0000000000
1717675214820,233.0000000000,84.0000000000,31.0000000000,116.0000000000,113.0000000000,47.0000000000
1717675214820,232.0000000000,84.0000000000,31.0000000000,116.0000000000,113.0000000000,47.0000000000
1717675214820,231.0000000000,84.0000000000,30.0000000000,115.0000000000,112.0000000000,46.0000000000
1717675214820,230.0000000000,83.0000000000,30.0000000000,115.0000000000,112.0000000000,46.0000000000
1717675214820,228.0000000000,83.0000000000,30.0000000000,114.0000000000,111.0000000000,45.0000000000
1717675214847,227.0000000000,83.0000000000,30.0000000000,113.0000000000,111.0000000000,45.0000000000
1717675214848,226.0000000000,82.0000000000,29.0000000000,112.0000000000,110.0000000000,45.0000000000
1717675214848,224.0000000000,81.0000000000,29.0000000000,112.0000000000,109.0000000000,44.0000000000
1717675214848,223.0000000000,81.0000000000,30.0000000000,111.0000000000,109.0000000000,44.0000000000
1717675214848,222.0000000000,80.0000000000,29.0000000000,110.0000000000,108.0000000000,44.0000000000
1717675214848,220.0000000000,80.0000000000,29.0000000000,110.0000000000,108.0000000000,44.0000000000
1717675214849,220.0000000000,79.0000000000,28.0000000000,109.0000000000,107.0000000000,43.0000000000
1717675214849,217.0000000000,79.0000000000,28.0000000000,108.0000000000,106.0000000000,43.0000000000
1717675214849,217.0000000000,113.0000000000,35.0000000000,108.0000000000,106.0000000000,43.0000000000
1717675214849,216.0000000000,112.0000000000,38.0000000000,107.0000000000,104.0000000000,43.0000000000
1717675214849,215.0000000000,112.0000000000,38.0000000000,105.0000000000,103.0000000000,42.0000000000
1717675214849,214.0000000000,111.0000000000,37.0000000000,105.0000000000,126.0000000000,41.0000000000
1717675214849,212.0000000000,110.0000000000,36.0000000000,105.0000000000,124.0000000000,42.0000000000
1717675214849,211.0000000000,110.0000000000,36.0000000000,103.0000000000,124.0000000000,41.0000000000
1717675214849,209.0000000000,109.0000000000,36.0000000000,103.0000000000,123.0000000000,41.0000000000
1717675214864,207.0000000000,108.0000000000,35.0000000000,103.0000000000,121.0000000000,41.0000000000
1717675214865,207.0000000000,107.0000000000,35.0000000000,102.0000000000,120.0000000000,39.0000000000
1717675214865,206.0000000000,107.0000000000,35.0000000000,102.0000000000,120.0000000000,39.0000000000
1717675214866,204.0000000000,106.0000000000,35.0000000000,100.0000000000,119.0000000000,39.0000000000
1717675214866,204.0000000000,119.0000000000,35.0000000000,99.0000000000,119.0000000000,39.0000000000
1717675214866,203.0000000000,122.0000000000,35.0000000000,99.0000000000,118.0000000000,39.0000000000
1717675214866,201.0000000000,120.0000000000,34.0000000000,99.0000000000,117.0000000000,39.0000000000
1717675214866,199.0000000000,120.0000000000,33.0000000000,98.0000000000,116.0000000000,39.0000000000
1717675214884,199.0000000000,120.0000000000,33.0000000000,97.0000000000,115.0000000000,39.0000000000
1717675214885,249.0000000000,119.0000000000,34.0000000000,97.0000000000,115.0000000000,39.0000000000
1717675214885,388.0000000000,118.0000000000,33.0000000000,96.0000000000,114.0000000000,39.0000000000
1717675214885,383.0000000000,116.0000000000,33.0000000000,96.0000000000,113.0000000000,38.0000000000
1717675214885,379.0000000000,116.0000000000,33.0000000000,95.0000000000,113.0000000000,37.0000000000
1717675214885,376.0000000000,115.0000000000,33.0000000000,95.0000000000,112.0000000000,38.0000000000
1717675214885,372.0000000000,114.0000000000,33.0000000000,94.0000000000,111.0000000000,37.0000000000
1717675214885,369.0000000000,113.0000000000,32.0000000000,93.0000000000,111.0000000000,37.0000000000
1717675214885,367.0000000000,113.0000000000,31.0000000000,93.0000000000,110.0000000000,37.0000000000
1717675214885,363.0000000000,112.0000000000,31.0000000000,92.0000000000,110.0000000000,36.0000000000
1717675214885,359.0000000000,111.0000000000,31.0000000000,92.0000000000,109.0000000000,35.0000000000
1717675214909,358.0000000000,111.0000000000,31.0000000000,92.0000000000,108.0000000000,36.0000000000
1717675214911,355.0000000000,110.0000000000,31.0000000000,91.0000000000,108.0000000000,131.0000000000
1717675214911,352.0000000000,109.0000000000,31.0000000000,90.0000000000,107.0000000000,127.0000000000
1717675214911,349.0000000000,108.0000000000,31.0000000000,89.0000000000,106.0000000000,127.0000000000
1717675214912,347.0000000000,108.0000000000,30.0000000000,89.0000000000,105.0000000000,126.0000000000
1717675214912,344.0000000000,107.0000000000,30.0000000000,88.0000000000,105.0000000000,125.0000000000
1717675214912,341.0000000000,107.0000000000,31.0000000000,88.0000000000,104.0000000000,124.0000000000
1717675214912,339.0000000000,105.0000000000,31.0000000000,87.0000000000,130.0000000000,123.0000000000
1717675214913,335.0000000000,105.0000000000,31.0000000000,87.0000000000,139.0000000000,123.0000000000
1717675214913,334.0000000000,103.0000000000,31.0000000000,86.0000000000,138.0000000000,121.0000000000
1717675214913,331.0000000000,103.0000000000,31.0000000000,86.0000000000,137.0000000000,121.0000000000
1717675214913,327.0000000000,103.0000000000,30.0000000000,85.0000000000,135.0000000000,120.0000000000
1717675214914,326.0000000000,102.0000000000,31.0000000000,84.0000000000,135.0000000000,119.0000000000
1717675214914,323.0000000000,102.0000000000,31.0000000000,83.0000000000,135.0000000000,118.0000000000
1717675214914,321.0000000000,100.0000000000,30.0000000000,83.0000000000,135.0000000000,118.0000000000
1717675214939,319.0000000000,100.0000000000,30.0000000000,83.0000000000,134.0000000000,116.0000000000
1717675214939,316.0000000000,103.0000000000,30.0000000000,83.0000000000,133.0000000000,115.0000000000
1717675214940,315.0000000000,207.0000000000,29.0000000000,82.0000000000,132.0000000000,115.0000000000
1717675214940,312.0000000000,241.0000000000,29.0000000000,81.0000000000,131.0000000000,114.0000000000
1717675214940,310.0000000000,238.0000000000,29.0000000000,81.0000000000,131.0000000000,113.0000000000
1717675214940,307.0000000000,236.0000000000,28.0000000000,80.0000000000,129.0000000000,113.0000000000
1717675214940,305.0000000000,234.0000000000,29.0000000000,80.0000000000,129.0000000000,112.0000000000
1717675214940,304.0000000000,231.0000000000,29.0000000000,79.0000000000,127.0000000000,111.0000000000
1717675214941,302.0000000000,231.0000000000,28.0000000000,79.0000000000,127.0000000000,111.0000000000
1717675214942,299.0000000000,228.0000000000,28.0000000000,79.0000000000,126.0000000000,110.0000000000
1717675214942,297.0000000000,227.0000000000,28.0000000000,78.0000000000,126.0000000000,109.0000000000
1717675214942,295.0000000000,225.0000000000,28.0000000000,78.0000000000,124.0000000000,108.0000000000
1717675214942,294.0000000000,224.0000000000,28.0000000000,78.0000000000,123.0000000000,108.0000000000
1717675214943,291.0000000000,223.0000000000,28.0000000000,76.0000000000,123.0000000000,107.0000000000
1717675214943,289.0000000000,221.0000000000,28.0000000000,76.0000000000,122.0000000000,106.0000000000
1717675214965,287.0000000000,219.0000000000,27.0000000000,76.0000000000,121.0000000000,105.0000000000
1717675214966,285.0000000000,217.0000000000,27.0000000000,75.0000000000,120.0000000000,105.0000000000
1717675214967,284.0000000000,216.0000000000,27.0000000000,75.0000000000,120.0000000000,103.0000000000
1717675214967,281.0000000000,215.0000000000,27.0000000000,74.0000000000,119.0000000000,103.0000000000
1717675214967,280.0000000000,214.0000000000,26.0000000000,74.0000000000,126.0000000000,103.0000000000
1717675214967,278.0000000000,211.0000000000,26.0000000000,73.0000000000,124.0000000000,103.0000000000
1717675214968,276.0000000000,211.0000000000,26.0000000000,73.0000000000,124.0000000000,102.0000000000
1717675214968,273.0000000000,208.0000000000,26.0000000000,71.0000000000,123.0000000000,101.0000000000
1717675214968,272.0000000000,207.0000000000,25.0000000000,71.0000000000,121.0000000000,100.0000000000
1717675214968,270.0000000000,206.0000000000,30.0000000000,71.0000000000,121.0000000000,100.0000000000
1717675214969,268.0000000000,204.0000000000,34.0000000000,71.0000000000,120.0000000000,99.0000000000
1717675214969,267.0000000000,204.0000000000,34.0000000000,70.0000000000,120.0000000000,98.0000000000
1717675214969,265.0000000000,203.0000000000,33.0000000000,71.0000000000,120.0000000000,98.0000000000
1717675214970,263.0000000000,200.0000000000,33.0000000000,70.0000000000,119.0000000000,97.0000000000
1717675214991,262.0000000000,199.0000000000,33.0000000000,70.0000000000,117.0000000000,96.0000000000
1717675214992,260.0000000000,199.0000000000,33.0000000000,79.0000000000,116.0000000000,96.0000000000
1717675214992,259.0000000000,198.0000000000,32.0000000000,79.0000000000,115.0000000000,96.0000000000
1717675214992,257.0000000000,195.0000000000,31.0000000000,78.0000000000,148.0000000000,95.0000000000
1717675214992,255.0000000000,195.0000000000,31.0000000000,78.0000000000,147.0000000000,95.0000000000
1717675214992,254.0000000000,193.0000000000,31.0000000000,77.0000000000,146.0000000000,94.0000000000
1717675214992,252.0000000000,192.0000000000,31.0000000000,77.0000000000,145.0000000000,94.0000000000
1717675214992,251.0000000000,192.0000000000,31.0000000000,76.0000000000,144.0000000000,93.0000000000
1717675214992,249.0000000000,190.0000000000,31.0000000000,76.0000000000,143.0000000000,92.0000000000
1717675214992,248.0000000000,190.0000000000,31.0000000000,75.0000000000,184.0000000000,92.0000000000
1717675214992,246.0000000000,188.0000000000,31.0000000000,75.0000000000,184.0000000000,91.0000000000
1717675215009,245.0000000000,187.0000000000,31.0000000000,73.0000000000,182.0000000000,91.0000000000
1717675215009,243.0000000000,185.0000000000,30.0000000000,73.0000000000,180.0000000000,91.0000000000
1717675215009,242.0000000000,185.0000000000,31.0000000000,73.0000000000,179.0000000000,89.0000000000
1717675215009,289.0000000000,184.0000000000,30.0000000000,73.0000000000,179.0000000000,89.0000000000
1717675215010,393.0000000000,183.0000000000,30.0000000000,72.0000000000,177.0000000000,89.0000000000
1717675215010,390.0000000000,181.0000000000,30.0000000000,71.0000000000,176.0000000000,88.0000000000
1717675215010,386.0000000000,180.0000000000,31.0000000000,71.0000000000,175.0000000000,88.0000000000
1717675215010,383.0000000000,179.0000000000,31.0000000000,71.0000000000,174.0000000000,87.0000000000
1717675215010,379.0000000000,177.0000000000,31.0000000000,71.0000000000,172.0000000000,87.0000000000
1717675215030,376.0000000000,190.0000000000,30.0000000000,71.0000000000,171.0000000000,86.0000000000
1717675215032,372.0000000000,188.0000000000,30.0000000000,70.0000000000,170.0000000000,86.0000000000
1717675215033,370.0000000000,187.0000000000,30.0000000000,70.0000000000,169.0000000000,85.0000000000
1717675215034,367.0000000000,186.0000000000,30.0000000000,70.0000000000,167.0000000000,84.0000000000
1717675215035,364.0000000000,184.0000000000,30.0000000000,69.0000000000,167.0000000000,84.0000000000
1717675215036,361.0000000000,184.0000000000,30.0000000000,68.0000000000,166.0000000000,83.0000000000
1717675215036,359.0000000000,182.0000000000,30.0000000000,67.0000000000,165.0000000000,83.0000000000
1717675215037,356.0000000000,181.0000000000,30.0000000000,67.0000000000,163.0000000000,83.0000000000
1717675215038,353.0000000000,179.0000000000,29.0000000000,67.0000000000,163.0000000000,83.0000000000
1717675215038,351.0000000000,178.0000000000,29.0000000000,67.0000000000,161.0000000000,82.0000000000
1717675215038,348.0000000000,177.0000000000,29.0000000000,67.0000000000,160.0000000000,81.0000000000
1717675215039,345.0000000000,176.0000000000,28.0000000000,66.0000000000,159.0000000000,80.0000000000
1717675215039,343.0000000000,176.0000000000,28.0000000000,65.0000000000,159.0000000000,79.0000000000
1717675215040,340.0000000000,174.0000000000,28.0000000000,65.0000000000,158.0000000000,79.0000000000
1717675215040,338.0000000000,173.0000000000,28.0000000000,65.0000000000,157.0000000000,79.0000000000
1717675215040,335.0000000000,172.0000000000,27.0000000000,64.0000000000,156.0000000000,79.0000000000
1717675215040,334.0000000000,171.0000000000,28.0000000000,63.0000000000,155.0000000000,79.0000000000
1717675215040,331.0000000000,170.0000000000,27.0000000000,63.0000000000,154.0000000000,78.0000000000
1717675215058,327.0000000000,169.0000000000,28.0000000000,63.0000000000,153.0000000000,78.0000000000
1717675215060,326.0000000000,167.0000000000,27.0000000000,63.0000000000,182.0000000000,78.0000000000
1717675215061,324.0000000000,167.0000000000,27.0000000000,62.0000000000,211.0000000000,77.0000000000
1717675215061,321.0000000000,166.0000000000,27.0000000000,62.0000000000,208.0000000000,76.0000000000
1717675215062,319.0000000000,166.0000000000,26.0000000000,62.0000000000,207.0000000000,76.0000000000
1717675215062,317.0000000000,164.0000000000,25.0000000000,62.0000000000,206.0000000000,76.0000000000
1717675215063,315.0000000000,163.0000000000,26.0000000000,62.0000000000,204.0000000000,75.0000000000
1717675215063,313.0000000000,163.0000000000,26.0000000000,61.0000000000,203.0000000000,75.0000000000
1717675215064,311.0000000000,161.0000000000,25.0000000000,60.0000000000,201.0000000000,74.0000000000
1717675215065,308.0000000000,161.0000000000,26.0000000000,60.0000000000,199.0000000000,73.0000000000
1717675215065,307.0000000000,159.0000000000,25.0000000000,60.0000000000,199.0000000000,73.0000000000
1717675215066,304.0000000000,159.0000000000,25.0000000000,59.0000000000,198.0000000000,73.0000000000
1717675215066,303.0000000000,158.0000000000,25.0000000000,60.0000000000,196.0000000000,73.0000000000
1717675215085,300.0000000000,157.0000000000,24.0000000000,59.0000000000,195.0000000000,71.0000000000
1717675215085,299.0000000000,156.0000000000,25.0000000000,59.0000000000,193.0000000000,71.0000000000
1717675215085,295.0000000000,155.0000000000,25.0000000000,57.0000000000,192.0000000000,71.0000000000
1717675215085,321.0000000000,156.0000000000,25.0000000000,58.0000000000,192.0000000000,71.0000000000
1717675215086,375.0000000000,175.0000000000,28.0000000000,57.0000000000,190.0000000000,71.0000000000
1717675215086,371.0000000000,173.0000000000,28.0000000000,57.0000000000,189.0000000000,71.0000000000
1717675215086,368.0000000000,172.0000000000,27.0000000000,56.0000000000,222.0000000000,70.0000000000
1717675215086,403.0000000000,217.0000000000,28.0000000000,56.0000000000,220.0000000000,69.0000000000
1717675215086,403.0000000000,216.0000000000,27.0000000000,56.0000000000,218.0000000000,69.0000000000
1717675215086,399.0000000000,214.0000000000,26.0000000000,56.0000000000,216.0000000000,68.0000000000
1717675215086,396.0000000000,212.0000000000,27.0000000000,56.0000000000,216.0000000000,68.0000000000
1717675215102,391.0000000000,210.0000000000,26.0000000000,56.0000000000,214.0000000000,68.0000000000
1717675215102,389.0000000000,209.0000000000,26.0000000000,55.0000000000,212.0000000000,67.0000000000
1717675215103,385.0000000000,207.0000000000,25.0000000000,55.0000000000,211.0000000000,67.0000000000
1717675215103,384.0000000000,206.0000000000,26.0000000000,54.0000000000,209.0000000000,67.0000000000
1717675215103,380.0000000000,236.0000000000,25.0000000000,54.0000000000,207.0000000000,67.0000000000
1717675215103,376.0000000000,235.0000000000,25.0000000000,53.0000000000,207.0000000000,65.0000000000
1717675215103,374.0000000000,231.0000000000,25.0000000000,54.0000000000,206.0000000000,65.0000000000
1717675215103,371.0000000000,231.0000000000,25.0000000000,53.0000000000,204.0000000000,65.0000000000
1717675215119,368.0000000000,229.0000000000,25.0000000000,53.0000000000,214.0000000000,65.0000000000
1717675215120,403.0000000000,227.0000000000,24.0000000000,52.0000000000,229.0000000000,65.0000000000
1717675215120,582.0000000000,227.0000000000,24.0000000000,51.0000000000,227.0000000000,64.0000000000
1717675215120,598.0000000000,224.0000000000,24.0000000000,52.0000000000,225.0000000000,63.0000000000
1717675215121,591.0000000000,223.0000000000,24.0000000000,51.0000000000,224.0000000000,63.0000000000
1717675215122,584.0000000000,221.0000000000,24.0000000000,51.0000000000,222.0000000000,63.0000000000
1717675215122,579.0000000000,220.0000000000,24.0000000000,51.0000000000,221.0000000000,62.0000000000
1717675215122,572.0000000000,218.0000000000,24.0000000000,51.0000000000,220.0000000000,62.0000000000
1717675215122,567.0000000000,217.0000000000,24.0000000000,51.0000000000,217.0000000000,62.0000000000
1717675215123,561.0000000000,216.0000000000,24.0000000000,50.0000000000,216.0000000000,62.0000000000
1717675215123,556.0000000000,214.0000000000,24.0000000000,50.0000000000,215.0000000000,61.0000000000
1717675215149,551.0000000000,212.0000000000,23.0000000000,49.0000000000,214.0000000000,61.0000000000
1717675215150,545.0000000000,211.0000000000,23.0000000000,49.0000000000,212.0000000000,60.0000000000
1717675215150,540.0000000000,210.0000000000,23.0000000000,49.0000000000,211.0000000000,60.0000000000
1717675215150,535.0000000000,208.0000000000,23.0000000000,49.0000000000,209.0000000000,60.0000000000
1717675215150,530.0000000000,207.0000000000,23.0000000000,48.0000000000,207.0000000000,60.0000000000
1717675215150,526.0000000000,206.0000000000,23.0000000000,48.0000000000,243.0000000000,59.0000000000
1717675215150,520.0000000000,204.0000000000,23.0000000000,48.0000000000,241.0000000000,59.0000000000
1717675215151,516.0000000000,204.0000000000,22.0000000000,48.0000000000,239.0000000000,59.0000000000
1717675215151,512.0000000000,201.0000000000,22.0000000000,47.0000000000,238.0000000000,57.0000000000
1717675215151,508.0000000000,200.0000000000,22.0000000000,47.0000000000,236.0000000000,58.0000000000
1717675215151,503.0000000000,199.0000000000,22.0000000000,47.0000000000,235.0000000000,58.0000000000
1717675215151,499.0000000000,199.0000000000,22.0000000000,46.0000000000,233.0000000000,57.0000000000
1717675215151,494.0000000000,197.0000000000,22.0000000000,46.0000000000,231.0000000000,57.0000000000
1717675215151,490.0000000000,195.0000000000,22.0000000000,46.0000000000,230.0000000000,56.0000000000
1717675215152,486.0000000000,195.0000000000,21.0000000000,46.0000000000,228.0000000000,56.0000000000
1717675215152,482.0000000000,194.0000000000,21.0000000000,46.0000000000,227.0000000000,56.0000000000
1717675215167,478.0000000000,192.0000000000,20.0000000000,46.0000000000,225.0000000000,56.0000000000
1717675215167,475.0000000000,191.0000000000,21.0000000000,45.0000000000,224.0000000000,56.0000000000
1717675215167,471.0000000000,190.0000000000,20.0000000000,45.0000000000,222.0000000000,55.0000000000
1717675215168,467.0000000000,188.0000000000,20.0000000000,44.0000000000,220.0000000000,55.0000000000
1717675215168,463.0000000000,188.0000000000,20.0000000000,44.0000000000,220.0000000000,54.0000000000
1717675215168,460.0000000000,187.0000000000,20.0000000000,44.0000000000,219.0000000000,54.0000000000
1717675215168,455.0000000000,185.0000000000,20.0000000000,44.0000000000,216.0000000000,54.0000000000
1717675215168,451.0000000000,184.0000000000,19.0000000000,44.0000000000,216.0000000000,54.0000000000
1717675215185,448.0000000000,184.0000000000,20.0000000000,43.0000000000,214.0000000000,54.0000000000
1717675215185,445.0000000000,182.0000000000,37.0000000000,43.0000000000,213.0000000000,53.0000000000
1717675215186,582.0000000000,181.0000000000,36.0000000000,43.0000000000,211.0000000000,53.0000000000
1717675215186,574.0000000000,180.0000000000,35.0000000000,42.0000000000,210.0000000000,52.0000000000
1717675215186,568.0000000000,179.0000000000,35.0000000000,42.0000000000,209.0000000000,52.0000000000
1717675215186,561.0000000000,178.0000000000,35.0000000000,41.0000000000,207.0000000000,51.0000000000
1717675215187,556.0000000000,177.0000000000,35.0000000000,41.0000000000,206.0000000000,51.0000000000
1717675215187,551.0000000000,176.0000000000,35.0000000000,41.0000000000,205.0000000000,51.0000000000
1717675215187,545.0000000000,175.0000000000,34.0000000000,41.0000000000,204.0000000000,51.0000000000
1717675215188,540.0000000000,174.0000000000,34.0000000000,41.0000000000,203.0000000000,51.0000000000
1717675215188,535.0000000000,172.0000000000,33.0000000000,41.0000000000,200.0000000000,50.0000000000
1717675215204,529.0000000000,172.0000000000,34.0000000000,39.0000000000,199.0000000000,50.0000000000
1717675215205,524.0000000000,171.0000000000,33.0000000000,39.0000000000,199.0000000000,50.0000000000
1717675215205,519.0000000000,170.0000000000,33.0000000000,39.0000000000,198.0000000000,49.0000000000
1717675215205,515.0000000000,168.0000000000,33.0000000000,39.0000000000,196.0000000000,49.0000000000
1717675215205,511.0000000000,167.0000000000,33.0000000000,39.0000000000,195.0000000000,49.0000000000
1717675215205,507.0000000000,167.0000000000,33.0000000000,39.0000000000,193.0000000000,48.0000000000
1717675215205,502.0000000000,166.0000000000,33.0000000000,39.0000000000,193.0000000000,48.0000000000
1717675215205,497.0000000000,165.0000000000,33.0000000000,39.0000000000,192.0000000000,48.0000000000
1717675215206,493.0000000000,163.0000000000,32.0000000000,39.0000000000,191.0000000000,48.0000000000
1717675215230,488.0000000000,163.0000000000,31.0000000000,39.0000000000,190.0000000000,48.0000000000
1717675215230,485.0000000000,162.0000000000,31.0000000000,38.0000000000,188.0000000000,48.0000000000
1717675215230,481.0000000000,161.0000000000,31.0000000000,39.0000000000,188.0000000000,47.0000000000
1717675215231,477.0000000000,159.0000000000,31.0000000000,38.0000000000,185.0000000000,47.0000000000
1717675215231,473.0000000000,159.0000000000,31.0000000000,38.0000000000,185.0000000000,47.0000000000
1717675215231,469.0000000000,158.0000000000,31.0000000000,38.0000000000,184.0000000000,46.0000000000
1717675215231,465.0000000000,157.0000000000,31.0000000000,37.0000000000,183.0000000000,46.0000000000
1717675215231,462.0000000000,156.0000000000,31.0000000000,37.0000000000,182.0000000000,46.0000000000
1717675215231,458.0000000000,156.0000000000,30.0000000000,37.0000000000,181.0000000000,46.0000000000
1717675215231,454.0000000000,155.0000000000,30.0000000000,36.0000000000,179.0000000000,45.0000000000
1717675215231,450.0000000000,154.0000000000,30.0000000000,36.0000000000,179.0000000000,45.0000000000
1717675215231,447.0000000000,152.0000000000,30.0000000000,35.0000000000,177.0000000000,44.0000000000
1717675215231,444.0000000000,152.0000000000,30.0000000000,36.0000000000,176.0000000000,63.0000000000
1717675215249,440.0000000000,151.0000000000,30.0000000000,35.0000000000,176.0000000000,63.0000000000
1717675215250,436.0000000000,151.0000000000,29.0000000000,36.0000000000,175.0000000000,63.0000000000
1717675215250,433.0000000000,150.0000000000,29.0000000000,97.0000000000,174.0000000000,62.0000000000
1717675215250,430.0000000000,148.0000000000,29.0000000000,96.0000000000,172.0000000000,62.0000000000
1717675215250,427.0000000000,147.0000000000,28.0000000000,96.0000000000,174.0000000000,61.0000000000
1717675215252,423.0000000000,147.0000000000,28.0000000000,95.0000000000,274.0000000000,60.0000000000
1717675215252,420.0000000000,146.0000000000,28.0000000000,94.0000000000,271.0000000000,60.0000000000
1717675215252,417.0000000000,145.0000000000,28.0000000000,93.0000000000,269.0000000000,60.0000000000
1717675215252,414.0000000000,145.0000000000,28.0000000000,92.0000000000,267.0000000000,59.0000000000
1717675215252,411.0000000000,143.0000000000,28.0000000000,92.0000000000,265.0000000000,59.0000000000
1717675215252,564.0000000000,143.0000000000,28.0000000000,91.0000000000,263.0000000000,58.0000000000
1717675215253,643.0000000000,142.0000000000,28.0000000000,91.0000000000,261.0000000000,59.0000000000
1717675215253,635.0000000000,142.0000000000,27.0000000000,89.0000000000,259.0000000000,58.0000000000
1717675215266,627.0000000000,140.0000000000,27.0000000000,89.0000000000,257.0000000000,57.0000000000
1717675215266,620.0000000000,140.0000000000,27.0000000000,88.0000000000,255.0000000000,56.0000000000
1717675215266,614.0000000000,140.0000000000,27.0000000000,88.0000000000,254.0000000000,56.0000000000
1717675215266,608.0000000000,139.0000000000,27.0000000000,88.0000000000,252.0000000000,56.0000000000
1717675215267,601.0000000000,137.0000000000,28.0000000000,87.0000000000,251.0000000000,56.0000000000
1717675215267,595.0000000000,137.0000000000,28.0000000000,87.0000000000,249.0000000000,56.0000000000
1717675215267,590.0000000000,135.0000000000,28.0000000000,86.0000000000,248.0000000000,55.0000000000
1717675215283,583.0000000000,135.0000000000,28.0000000000,86.0000000000,246.0000000000,55.0000000000
1717675215285,577.0000000000,135.0000000000,28.0000000000,85.0000000000,244.0000000000,55.0000000000
1717675215285,572.0000000000,134.0000000000,30.0000000000,83.0000000000,243.0000000000,54.0000000000
1717675215285,567.0000000000,153.0000000000,30.0000000000,83.0000000000,241.0000000000,54.0000000000
1717675215285,561.0000000000,152.0000000000,29.0000000000,83.0000000000,240.0000000000,54.0000000000
1717675215286,556.0000000000,195.0000000000,29.0000000000,83.0000000000,239.0000000000,53.0000000000
1717675215286,551.0000000000,193.0000000000,28.0000000000,82.0000000000,236.0000000000,52.0000000000
1717675215286,546.0000000000,192.0000000000,28.0000000000,81.0000000000,235.0000000000,52.0000000000
1717675215286,540.0000000000,190.0000000000,28.0000000000,81.0000000000,233.0000000000,52.0000000000
1717675215287,536.0000000000,189.0000000000,28.0000000000,80.0000000000,243.0000000000,51.0000000000
1717675215288,531.0000000000,188.0000000000,28.0000000000,80.0000000000,241.0000000000,51.0000000000
1717675215303,527.0000000000,186.0000000000,28.0000000000,79.0000000000,240.0000000000,51.0000000000
1717675215304,521.0000000000,185.0000000000,28.0000000000,79.0000000000,238.0000000000,51.0000000000
1717675215304,517.0000000000,184.0000000000,27.0000000000,78.0000000000,237.0000000000,51.0000000000
1717675215304,513.0000000000,183.0000000000,27.0000000000,78.0000000000,236.0000000000,50.0000000000
1717675215304,508.0000000000,182.0000000000,27.0000000000,78.0000000000,233.0000000000,50.0000000000
1717675215304,504.0000000000,179.0000000000,27.0000000000,78.0000000000,231.0000000000,49.0000000000
1717675215304,499.0000000000,179.0000000000,26.0000000000,77.0000000000,231.0000000000,49.0000000000
1717675215304,496.0000000000,178.0000000000,27.0000000000,76.0000000000,229.0000000000,49.0000000000
1717675215304,492.0000000000,176.0000000000,27.0000000000,76.0000000000,227.0000000000,48.0000000000
1717675215328,487.0000000000,176.0000000000,26.0000000000,76.0000000000,226.0000000000,48.0000000000
1717675215329,483.0000000000,175.0000000000,25.0000000000,75.0000000000,225.0000000000,48.0000000000
1717675215329,480.0000000000,173.0000000000,25.0000000000,75.0000000000,224.0000000000,48.0000000000
1717675215329,476.0000000000,172.0000000000,25.0000000000,75.0000000000,222.0000000000,48.0000000000
1717675215329,472.0000000000,171.0000000000,25.0000000000,73.0000000000,221.0000000000,48.0000000000
1717675215329,468.0000000000,170.0000000000,25.0000000000,73.0000000000,220.0000000000,47.0000000000
1717675215329,464.0000000000,169.0000000000,25.0000000000,71.0000000000,218.0000000000,46.0000000000
1717675215329,461.0000000000,167.0000000000,24.0000000000,71.0000000000,216.0000000000,46.0000000000
1717675215330,457.0000000000,167.0000000000,24.0000000000,71.0000000000,216.0000000000,46.0000000000
1717675215330,454.0000000000,166.0000000000,25.0000000000,71.0000000000,214.0000000000,46.0000000000
1717675215330,450.0000000000,164.0000000000,24.0000000000,71.0000000000,213.0000000000,46.0000000000
1717675215330,447.0000000000,163.0000000000,24.0000000000,71.0000000000,211.0000000000,45.0000000000
1717675215330,443.0000000000,163.0000000000,24.0000000000,70.0000000000,211.0000000000,45.0000000000
1717675215330,440.0000000000,162.0000000000,24.0000000000,70.0000000000,209.0000000000,44.0000000000
1717675215330,436.0000000000,161.0000000000,24.0000000000,70.0000000000,207.0000000000,45.0000000000
1717675215344,433.0000000000,159.0000000000,24.0000000000,69.0000000000,207.0000000000,44.0000000000
1717675215344,430.0000000000,159.0000000000,24.0000000000,68.0000000000,206.0000000000,44.0000000000
1717675215344,427.0000000000,158.0000000000,24.0000000000,67.0000000000,204.0000000000,44.0000000000
1717675215345,423.0000000000,157.0000000000,39.0000000000,67.0000000000,204.0000000000,44.0000000000
1717675215345,420.0000000000,156.0000000000,43.0000000000,67.0000000000,201.0000000000,44.0000000000
1717675215345,417.0000000000,155.0000000000,43.0000000000,67.0000000000,199.0000000000,44.0000000000
1717675215345,414.0000000000,154.0000000000,43.0000000000,66.0000000000,199.0000000000,43.0000000000
1717675215363,412.0000000000,184.0000000000,42.0000000000,65.0000000000,199.0000000000,43.0000000000
1717675215365,408.0000000000,211.0000000000,41.0000000000,118.0000000000,197.0000000000,43.0000000000
1717675215365,405.0000000000,209.0000000000,41.0000000000,143.0000000000,196.0000000000,42.0000000000
1717675215365,402.0000000000,207.0000000000,40.0000000000,142.0000000000,195.0000000000,41.0000000000
1717675215365,399.0000000000,206.0000000000,41.0000000000,141.0000000000,194.0000000000,41.0000000000
1717675215366,396.0000000000,204.0000000000,40.0000000000,140.0000000000,192.0000000000,41.0000000000
1717675215366,393.0000000000,203.0000000000,39.0000000000,139.0000000000,192.0000000000,41.0000000000
1717675215366,391.0000000000,224.0000000000,39.0000000000,137.0000000000,233.0000000000,40.0000000000
1717675215366,387.0000000000,223.0000000000,48.0000000000,136.0000000000,248.0000000000,39.0000000000
1717675215367,384.0000000000,220.0000000000,48.0000000000,135.0000000000,247.0000000000,40.0000000000
1717675215367,382.0000000000,219.0000000000,48.0000000000,135.0000000000,244.0000000000,39.0000000000
1717675215367,379.0000000000,217.0000000000,47.0000000000,134.0000000000,243.0000000000,39.0000000000
1717675215385,376.0000000000,216.0000000000,46.0000000000,133.0000000000,240.0000000000,39.0000000000
1717675215386,374.0000000000,214.0000000000,46.0000000000,132.0000000000,239.0000000000,39.0000000000
1717675215386,371.0000000000,212.0000000000,46.0000000000,131.0000000000,238.0000000000,39.0000000000
1717675215386,368.0000000000,211.0000000000,46.0000000000,131.0000000000,236.0000000000,39.0000000000
1717675215386,366.0000000000,209.0000000000,45.0000000000,129.0000000000,235.0000000000,39.0000000000
1717675215386,364.0000000000,208.0000000000,45.0000000000,129.0000000000,233.0000000000,38.0000000000
1717675215386,360.0000000000,207.0000000000,45.0000000000,127.0000000000,231.0000000000,39.0000000000
1717675215387,359.0000000000,205.0000000000,44.0000000000,127.0000000000,230.0000000000,38.0000000000
1717675215387,355.0000000000,204.0000000000,44.0000000000,126.0000000000,228.0000000000,38.0000000000
1717675215404,353.0000000000,202.0000000000,44.0000000000,125.0000000000,227.0000000000,38.0000000000
1717675215405,352.0000000000,201.0000000000,44.0000000000,124.0000000000,224.0000000000,38.0000000000
1717675215405,348.0000000000,199.0000000000,43.0000000000,124.0000000000,223.0000000000,37.0000000000
1717675215406,347.0000000000,198.0000000000,43.0000000000,123.0000000000,222.0000000000,37.0000000000
1717675215406,344.0000000000,198.0000000000,43.0000000000,122.0000000000,220.0000000000,36.0000000000
1717675215406,342.0000000000,195.0000000000,43.0000000000,121.0000000000,219.0000000000,36.0000000000
1717675215406,339.0000000000,195.0000000000,42.0000000000,120.0000000000,217.0000000000,36.0000000000
1717675215407,337.0000000000,193.0000000000,41.0000000000,120.0000000000,216.0000000000,36.0000000000
1717675215408,335.0000000000,192.0000000000,46.0000000000,119.0000000000,215.0000000000,36.0000000000
1717675215409,332.0000000000,191.0000000000,45.0000000000,118.0000000000,213.0000000000,44.0000000000
1717675215409,330.0000000000,190.0000000000,44.0000000000,117.0000000000,212.0000000000,47.0000000000
1717675215410,327.0000000000,188.0000000000,44.0000000000,116.0000000000,211.0000000000,47.0000000000
1717675215443,326.0000000000,187.0000000000,44.0000000000,115.0000000000,209.0000000000,46.0000000000
1717675215446,323.0000000000,186.0000000000,44.0000000000,115.0000000000,207.0000000000,52.0000000000
1717675215446,322.0000000000,184.0000000000,44.0000000000,114.0000000000,207.0000000000,51.0000000000
1717675215446,319.0000000000,184.0000000000,43.0000000000,113.0000000000,205.0000000000,51.0000000000
1717675215447,318.0000000000,183.0000000000,43.0000000000,112.0000000000,204.0000000000,51.0000000000
1717675215447,316.0000000000,180.0000000000,47.0000000000,112.0000000000,203.0000000000,51.0000000000
1717675215448,313.0000000000,180.0000000000,47.0000000000,111.0000000000,201.0000000000,50.0000000000
1717675215448,312.0000000000,179.0000000000,47.0000000000,111.0000000000,199.0000000000,49.0000000000
1717675215449,310.0000000000,178.0000000000,46.0000000000,110.0000000000,199.0000000000,49.0000000000
1717675215449,307.0000000000,176.0000000000,46.0000000000,109.0000000000,198.0000000000,49.0000000000
1717675215449,305.0000000000,175.0000000000,45.0000000000,108.0000000000,196.0000000000,48.0000000000
1717675215450,304.0000000000,174.0000000000,45.0000000000,108.0000000000,195.0000000000,48.0000000000
1717675215450,302.0000000000,173.0000000000,45.0000000000,111.0000000000,207.0000000000,48.0000000000
1717675215450,300.0000000000,172.0000000000,45.0000000000,110.0000000000,206.0000000000,47.0000000000
1717675215450,297.0000000000,172.0000000000,44.0000000000,110.0000000000,204.0000000000,47.0000000000
1717675215450,295.0000000000,169.0000000000,44.0000000000,108.0000000000,203.0000000000,47.0000000000
1717675215451,295.0000000000,168.0000000000,44.0000000000,108.0000000000,201.0000000000,46.0000000000
1717675215451,292.0000000000,167.0000000000,44.0000000000,108.0000000000,199.0000000000,47.0000000000
1717675215451,316.0000000000,167.0000000000,43.0000000000,107.0000000000,199.0000000000,46.0000000000
1717675215452,408.0000000000,166.0000000000,43.0000000000,105.0000000000,197.0000000000,45.0000000000
1717675215452,403.0000000000,166.0000000000,43.0000000000,105.0000000000,195.0000000000,46.0000000000
1717675215475,399.0000000000,164.0000000000,41.0000000000,103.0000000000,195.0000000000,44.0000000000
1717675215475,396.0000000000,163.0000000000,42.0000000000,103.0000000000,193.0000000000,45.0000000000
1717675215476,391.0000000000,162.0000000000,41.0000000000,103.0000000000,192.0000000000,45.0000000000
1717675215476,388.0000000000,161.0000000000,41.0000000000,102.0000000000,191.0000000000,44.0000000000
1717675215476,385.0000000000,160.0000000000,41.0000000000,102.0000000000,190.0000000000,44.0000000000
1717675215477,382.0000000000,159.0000000000,40.0000000000,101.0000000000,188.0000000000,44.0000000000
1717675215477,379.0000000000,158.0000000000,40.0000000000,100.0000000000,188.0000000000,43.0000000000
1717675215477,376.0000000000,157.0000000000,39.0000000000,99.0000000000,186.0000000000,43.0000000000
1717675215478,372.0000000000,156.0000000000,39.0000000000,99.0000000000,185.0000000000,43.0000000000
1717675215478,370.0000000000,156.0000000000,39.0000000000,99.0000000000,184.0000000000,43.0000000000
1717675215478,367.0000000000,155.0000000000,39.0000000000,98.0000000000,184.0000000000,42.0000000000
1717675215478,364.0000000000,153.0000000000,39.0000000000,97.0000000000,182.0000000000,42.0000000000
1717675215478,361.0000000000,152.0000000000,39.0000000000,97.0000000000,182.0000000000,41.0000000000
1717675215478,359.0000000000,152.0000000000,39.0000000000,96.0000000000,179.0000000000,41.0000000000
1717675215478,356.0000000000,152.0000000000,38.0000000000,96.0000000000,179.0000000000,41.0000000000
1717675215500,353.0000000000,150.0000000000,39.0000000000,95.0000000000,179.0000000000,41.0000000000
1717675215501,351.0000000000,149.0000000000,38.0000000000,95.0000000000,177.0000000000,40.0000000000
1717675215501,348.0000000000,148.0000000000,38.0000000000,94.0000000000,176.0000000000,39.0000000000
1717675215501,345.0000000000,147.0000000000,37.0000000000,93.0000000000,175.0000000000,39.0000000000
1717675215501,344.0000000000,147.0000000000,37.0000000000,93.0000000000,271.0000000000,39.0000000000
1717675215501,340.0000000000,146.0000000000,36.0000000000,92.0000000000,288.0000000000,39.0000000000
1717675215501,338.0000000000,145.0000000000,36.0000000000,92.0000000000,286.0000000000,39.0000000000
1717675215501,335.0000000000,144.0000000000,36.0000000000,91.0000000000,284.0000000000,39.0000000000
1717675215502,333.0000000000,143.0000000000,35.0000000000,91.0000000000,281.0000000000,39.0000000000
1717675215502,331.0000000000,143.0000000000,36.0000000000,89.0000000000,280.0000000000,39.0000000000
1717675215502,327.0000000000,142.0000000000,35.0000000000,89.0000000000,278.0000000000,39.0000000000
1717675215502,327.0000000000,141.0000000000,35.0000000000,89.0000000000,275.0000000000,38.0000000000
1717675215502,324.0000000000,179.0000000000,35.0000000000,88.0000000000,273.0000000000,38.0000000000
1717675215517,321.0000000000,178.0000000000,35.0000000000,88.0000000000,271.0000000000,38.0000000000
1717675215518,319.0000000000,176.0000000000,35.0000000000,88.0000000000,270.0000000000,38.0000000000
1717675215518,318.0000000000,176.0000000000,35.0000000000,87.0000000000,268.0000000000,37.0000000000
1717675215518,316.0000000000,174.0000000000,35.0000000000,86.0000000000,266.0000000000,36.0000000000
1717675215518,313.0000000000,173.0000000000,34.0000000000,88.0000000000,263.0000000000,36.0000000000
1717675215518,311.0000000000,172.0000000000,34.0000000000,88.0000000000,263.0000000000,36.0000000000
1717675215519,308.0000000000,171.0000000000,34.0000000000,87.0000000000,260.0000000000,36.0000000000
1717675215519,307.0000000000,169.0000000000,33.0000000000,87.0000000000,259.0000000000,35.0000000000
1717675215519,305.0000000000,167.0000000000,48.0000000000,86.0000000000,257.0000000000,35.0000000000
1717675215537,303.0000000000,168.0000000000,48.0000000000,86.0000000000,255.0000000000,35.0000000000
1717675215539,300.0000000000,167.0000000000,48.0000000000,84.0000000000,254.0000000000,35.0000000000
1717675215540,299.0000000000,167.0000000000,48.0000000000,84.0000000000,253.0000000000,35.0000000000
1717675215540,295.0000000000,164.0000000000,48.0000000000,84.0000000000,251.0000000000,35.0000000000
1717675215540,295.0000000000,164.0000000000,47.0000000000,83.0000000000,249.0000000000,35.0000000000
1717675215541,293.0000000000,163.0000000000,47.0000000000,83.0000000000,248.0000000000,34.0000000000
1717675215541,291.0000000000,228.0000000000,46.0000000000,82.0000000000,247.0000000000,34.0000000000
1717675215541,289.0000000000,227.0000000000,46.0000000000,82.0000000000,244.0000000000,34.0000000000
1717675215541,287.0000000000,225.0000000000,45.0000000000,81.0000000000,243.0000000000,33.0000000000
1717675215542,286.0000000000,224.0000000000,46.0000000000,81.0000000000,241.0000000000,33.0000000000
1717675215542,284.0000000000,222.0000000000,45.0000000000,81.0000000000,240.0000000000,33.0000000000
1717675215612,282.0000000000,220.0000000000,45.0000000000,79.0000000000,239.0000000000,33.0000000000
1717675215614,280.0000000000,219.0000000000,44.0000000000,79.0000000000,237.0000000000,33.0000000000
1717675215615,279.0000000000,217.0000000000,44.0000000000,79.0000000000,236.0000000000,33.0000000000
1717675215616,277.0000000000,216.0000000000,44.0000000000,79.0000000000,235.0000000000,33.0000000000
1717675215617,275.0000000000,215.0000000000,43.0000000000,78.0000000000,233.0000000000,32.0000000000
1717675215617,274.0000000000,213.0000000000,43.0000000000,78.0000000000,231.0000000000,32.0000000000
1717675215618,272.0000000000,211.0000000000,43.0000000000,77.0000000000,230.0000000000,31.0000000000
1717675215618,271.0000000000,211.0000000000,43.0000000000,77.0000000000,228.0000000000,31.0000000000
1717675215619,269.0000000000,208.0000000000,43.0000000000,76.0000000000,227.0000000000,31.0000000000
1717675215619,268.0000000000,207.0000000000,41.0000000000,76.0000000000,225.0000000000,31.0000000000
1717675215620,265.0000000000,206.0000000000,41.0000000000,76.0000000000,224.0000000000,31.0000000000
1717675215621,263.0000000000,205.0000000000,41.0000000000,75.0000000000,224.0000000000,31.0000000000
1717675215622,263.0000000000,204.0000000000,41.0000000000,74.0000000000,222.0000000000,31.0000000000
1717675215623,262.0000000000,202.0000000000,41.0000000000,74.0000000000,220.0000000000,31.0000000000
1717675215624,260.0000000000,199.0000000000,40.0000000000,73.0000000000,219.0000000000,57.0000000000
1717675215624,259.0000000000,199.0000000000,39.0000000000,73.0000000000,217.0000000000,56.0000000000
1717675215625,257.0000000000,198.0000000000,39.0000000000,72.0000000000,216.0000000000,56.0000000000
1717675215625,255.0000000000,197.0000000000,39.0000000000,71.0000000000,216.0000000000,56.0000000000
1717675215626,255.0000000000,195.0000000000,39.0000000000,71.0000000000,218.0000000000,56.0000000000
1717675215626,253.0000000000,195.0000000000,39.0000000000,71.0000000000,216.0000000000,55.0000000000
1717675215626,314.0000000000,193.0000000000,39.0000000000,71.0000000000,216.0000000000,55.0000000000
1717675215626,311.0000000000,192.0000000000,39.0000000000,71.0000000000,214.0000000000,54.0000000000
1717675215626,308.0000000000,191.0000000000,39.0000000000,71.0000000000,212.0000000000,54.0000000000
1717675215626,305.0000000000,190.0000000000,39.0000000000,70.0000000000,211.0000000000,54.0000000000
1717675215627,303.0000000000,189.0000000000,39.0000000000,70.0000000000,209.0000000000,53.0000000000
1717675215627,300.0000000000,188.0000000000,38.0000000000,69.0000000000,209.0000000000,52.0000000000
1717675215627,299.0000000000,187.0000000000,38.0000000000,69.0000000000,207.0000000000,51.0000000000
1717675215627,295.0000000000,185.0000000000,38.0000000000,68.0000000000,207.0000000000,51.0000000000
1717675215627,294.0000000000,184.0000000000,38.0000000000,67.0000000000,205.0000000000,51.0000000000
1717675215627,291.0000000000,262.0000000000,38.0000000000,67.0000000000,204.0000000000,51.0000000000
1717675215627,289.0000000000,281.0000000000,37.0000000000,67.0000000000,203.0000000000,51.0000000000
1717675215628,331.0000000000,279.0000000000,37.0000000000,67.0000000000,201.0000000000,51.0000000000
1717675215628,332.0000000000,278.0000000000,37.0000000000,71.0000000000,200.0000000000,50.0000000000
1717675215628,329.0000000000,275.0000000000,36.0000000000,71.0000000000,199.0000000000,49.0000000000
1717675215628,327.0000000000,272.0000000000,36.0000000000,70.0000000000,198.0000000000,49.0000000000
1717675215628,323.0000000000,271.0000000000,35.0000000000,70.0000000000,197.0000000000,49.0000000000
1717675215628,321.0000000000,269.0000000000,35.0000000000,69.0000000000,195.0000000000,49.0000000000
1717675215629,319.0000000000,267.0000000000,35.0000000000,68.0000000000,195.0000000000,48.0000000000
1717675215629,316.0000000000,265.0000000000,35.0000000000,68.0000000000,193.0000000000,48.0000000000
1717675215629,314.0000000000,263.0000000000,35.0000000000,67.0000000000,192.0000000000,48.0000000000
1717675215629,312.0000000000,262.0000000000,35.0000000000,67.0000000000,192.0000000000,47.0000000000
1717675215629,310.0000000000,259.0000000000,35.0000000000,67.0000000000,191.0000000000,47.0000000000
1717675215629,307.0000000000,257.0000000000,34.0000000000,66.0000000000,189.0000000000,47.0000000000
1717675215630,305.0000000000,255.0000000000,34.0000000000,66.0000000000,188.0000000000,47.0000000000
1717675215630,303.0000000000,255.0000000000,33.0000000000,65.0000000000,187.0000000000,46.0000000000
1717675215630,301.0000000000,253.0000000000,33.0000000000,65.0000000000,186.0000000000,46.0000000000
1717675215630,299.0000000000,252.0000000000,34.0000000000,65.0000000000,185.0000000000,46.0000000000
1717675215630,295.0000000000,249.0000000000,33.0000000000,65.0000000000,184.0000000000,46.0000000000
1717675215690,294.0000000000,248.0000000000,33.0000000000,63.0000000000,183.0000000000,45.0000000000
1717675215694,292.0000000000,246.0000000000,32.0000000000,63.0000000000,182.0000000000,45.0000000000
1717675215695,290.0000000000,244.0000000000,32.0000000000,63.0000000000,182.0000000000,44.0000000000
1717675215696,287.0000000000,243.0000000000,32.0000000000,63.0000000000,180.0000000000,44.0000000000
1717675215696,286.0000000000,241.0000000000,31.0000000000,63.0000000000,179.0000000000,44.0000000000
1717675215697,284.0000000000,240.0000000000,31.0000000000,63.0000000000,178.0000000000,44.0000000000
1717675215698,282.0000000000,238.0000000000,31.0000000000,62.0000000000,177.0000000000,44.0000000000
1717675215699,280.0000000000,237.0000000000,31.0000000000,62.0000000000,176.0000000000,43.0000000000
1717675215700,279.0000000000,236.0000000000,31.0000000000,61.0000000000,175.0000000000,43.0000000000
1717675215701,276.0000000000,233.0000000000,31.0000000000,61.0000000000,174.0000000000,43.0000000000
1717675215701,274.0000000000,232.0000000000,31.0000000000,61.0000000000,174.0000000000,41.0000000000
1717675215702,272.0000000000,231.0000000000,31.0000000000,60.0000000000,172.0000000000,43.0000000000
1717675215703,271.0000000000,230.0000000000,31.0000000000,60.0000000000,172.0000000000,42.0000000000
1717675215704,269.0000000000,228.0000000000,31.0000000000,60.0000000000,171.0000000000,41.0000000000
1717675215705,267.0000000000,227.0000000000,30.0000000000,60.0000000000,169.0000000000,41.0000000000
1717675215705,265.0000000000,225.0000000000,30.0000000000,59.0000000000,168.0000000000,41.0000000000
1717675215707,263.0000000000,224.0000000000,30.0000000000,59.0000000000,167.0000000000,40.0000000000
1717675215708,262.0000000000,223.0000000000,30.0000000000,58.0000000000,167.0000000000,39.0000000000
1717675215708,260.0000000000,222.0000000000,30.0000000000,58.0000000000,166.0000000000,39.0000000000
1717675215709,259.0000000000,220.0000000000,29.0000000000,57.0000000000,164.0000000000,39.0000000000
1717675215709,331.0000000000,219.0000000000,29.0000000000,57.0000000000,163.0000000000,39.0000000000
1717675215710,327.0000000000,217.0000000000,29.0000000000,56.0000000000,163.0000000000,39.0000000000
1717675215710,324.0000000000,216.0000000000,29.0000000000,56.0000000000,161.0000000000,39.0000000000
1717675215711,322.0000000000,215.0000000000,28.0000000000,56.0000000000,161.0000000000,39.0000000000
1717675215712,319.0000000000,214.0000000000,28.0000000000,56.0000000000,159.0000000000,39.0000000000
1717675215713,317.0000000000,211.0000000000,28.0000000000,56.0000000000,159.0000000000,39.0000000000
1717675215713,315.0000000000,211.0000000000,28.0000000000,56.0000000000,159.0000000000,38.0000000000
1717675215714,312.0000000000,209.0000000000,28.0000000000,56.0000000000,158.0000000000,38.0000000000
1717675215715,310.0000000000,207.0000000000,28.0000000000,55.0000000000,157.0000000000,38.0000000000
1717675215715,307.0000000000,207.0000000000,28.0000000000,55.0000000000,156.0000000000,38.0000000000
1717675215716,305.0000000000,206.0000000000,28.0000000000,54.0000000000,156.0000000000,38.0000000000
1717675215717,303.0000000000,204.0000000000,28.0000000000,83.0000000000,155.0000000000,37.0000000000
1717675215718,300.0000000000,203.0000000000,27.0000000000,116.0000000000,153.0000000000,36.0000000000
1717675215718,297.0000000000,201.0000000000,27.0000000000,115.0000000000,152.0000000000,36.0000000000
1717675215720,295.0000000000,241.0000000000,27.0000000000,114.0000000000,152.0000000000,35.0000000000
1717675215721,294.0000000000,239.0000000000,26.0000000000,113.0000000000,152.0000000000,36.0000000000
1717675215723,291.0000000000,237.0000000000,26.0000000000,112.0000000000,150.0000000000,35.0000000000
1717675215724,289.0000000000,235.0000000000,27.0000000000,111.0000000000,150.0000000000,35.0000000000
1717675215724,287.0000000000,233.0000000000,35.0000000000,110.0000000000,148.0000000000,35.0000000000
1717675215724,285.0000000000,231.0000000000,35.0000000000,110.0000000000,147.0000000000,35.0000000000
1717675215725,283.0000000000,230.0000000000,35.0000000000,109.0000000000,147.0000000000,35.0000000000
1717675215725,280.0000000000,228.0000000000,35.0000000000,108.0000000000,146.0000000000,35.0000000000
1717675215725,280.0000000000,227.0000000000,34.0000000000,108.0000000000,145.0000000000,34.0000000000
1717675215725,276.0000000000,225.0000000000,34.0000000000,107.0000000000,145.0000000000,33.0000000000
1717675215725,275.0000000000,224.0000000000,34.0000000000,106.0000000000,143.0000000000,34.0000000000
1717675215725,273.0000000000,222.0000000000,33.0000000000,105.0000000000,143.0000000000,34.0000000000
1717675215726,271.0000000000,220.0000000000,33.0000000000,104.0000000000,142.0000000000,33.0000000000
1717675215726,270.0000000000,219.0000000000,33.0000000000,103.0000000000,141.0000000000,33.0000000000
1717675215726,267.0000000000,217.0000000000,33.0000000000,103.0000000000,140.0000000000,33.0000000000
1717675215726,265.0000000000,216.0000000000,33.0000000000,103.0000000000,140.0000000000,33.0000000000
1717675215763,263.0000000000,215.0000000000,32.0000000000,102.0000000000,139.0000000000,33.0000000000
1717675215764,262.0000000000,214.0000000000,31.0000000000,101.0000000000,138.0000000000,32.0000000000
1717675215764,260.0000000000,211.0000000000,31.0000000000,100.0000000000,137.0000000000,31.0000000000
1717675215764,258.0000000000,211.0000000000,31.0000000000,99.0000000000,136.0000000000,31.0000000000
1717675215765,255.0000000000,209.0000000000,31.0000000000,99.0000000000,135.0000000000,31.0000000000
1717675215765,255.0000000000,207.0000000000,31.0000000000,98.0000000000,135.0000000000,31.0000000000
1717675215765,254.0000000000,206.0000000000,31.0000000000,98.0000000000,219.0000000000,31.0000000000
1717675215766,252.0000000000,205.0000000000,31.0000000000,97.0000000000,216.0000000000,31.0000000000
1717675215766,251.0000000000,204.0000000000,31.0000000000,96.0000000000,215.0000000000,31.0000000000
1717675215766,249.0000000000,203.0000000000,31.0000000000,96.0000000000,213.0000000000,62.0000000000
1717675215766,302.0000000000,201.0000000000,31.0000000000,96.0000000000,211.0000000000,60.0000000000
1717675215767,439.0000000000,199.0000000000,30.0000000000,95.0000000000,211.0000000000,60.0000000000
1717675215767,433.0000000000,199.0000000000,30.0000000000,94.0000000000,209.0000000000,59.0000000000
1717675215767,429.0000000000,198.0000000000,30.0000000000,94.0000000000,207.0000000000,59.0000000000
1717675215767,424.0000000000,196.0000000000,30.0000000000,93.0000000000,207.0000000000,59.0000000000
1717675215768,421.0000000000,195.0000000000,29.0000000000,92.0000000000,206.0000000000,58.0000000000
1717675215768,417.0000000000,194.0000000000,28.0000000000,92.0000000000,204.0000000000,58.0000000000
1717675215768,414.0000000000,193.0000000000,29.0000000000,91.0000000000,203.0000000000,57.0000000000
1717675215768,411.0000000000,192.0000000000,28.0000000000,91.0000000000,201.0000000000,56.0000000000
1717675215769,407.0000000000,192.0000000000,28.0000000000,89.0000000000,199.0000000000,56.0000000000
1717675215769,403.0000000000,190.0000000000,28.0000000000,89.0000000000,199.0000000000,56.0000000000
1717675215769,399.0000000000,189.0000000000,28.0000000000,88.0000000000,198.0000000000,56.0000000000
1717675215769,397.0000000000,188.0000000000,28.0000000000,88.0000000000,196.0000000000,56.0000000000
1717675215769,393.0000000000,187.0000000000,28.0000000000,88.0000000000,195.0000000000,56.0000000000
1717675215794,391.0000000000,185.0000000000,27.0000000000,88.0000000000,194.0000000000,55.0000000000
1717675215795,387.0000000000,184.0000000000,28.0000000000,87.0000000000,192.0000000000,54.0000000000
1717675215795,385.0000000000,184.0000000000,28.0000000000,86.0000000000,192.0000000000,54.0000000000
1717675215796,382.0000000000,183.0000000000,28.0000000000,86.0000000000,190.0000000000,54.0000000000
1717675215796,379.0000000000,182.0000000000,27.0000000000,85.0000000000,190.0000000000,53.0000000000
1717675215796,376.0000000000,180.0000000000,27.0000000000,85.0000000000,188.0000000000,53.0000000000
1717675215796,373.0000000000,179.0000000000,27.0000000000,84.0000000000,187.0000000000,52.0000000000
1717675215796,371.0000000000,178.0000000000,27.0000000000,83.0000000000,185.0000000000,52.0000000000
1717675215796,368.0000000000,177.0000000000,26.0000000000,83.0000000000,184.0000000000,51.0000000000
1717675215797,364.0000000000,176.0000000000,25.0000000000,83.0000000000,184.0000000000,51.0000000000
1717675215797,361.0000000000,175.0000000000,26.0000000000,82.0000000000,183.0000000000,51.0000000000
1717675215797,359.0000000000,174.0000000000,26.0000000000,82.0000000000,182.0000000000,51.0000000000
1717675215797,357.0000000000,174.0000000000,26.0000000000,81.0000000000,179.0000000000,50.0000000000
1717675215798,355.0000000000,172.0000000000,25.0000000000,80.0000000000,179.0000000000,50.0000000000
1717675215798,352.0000000000,172.0000000000,45.0000000000,80.0000000000,177.0000000000,50.0000000000
1717675215829,350.0000000000,171.0000000000,44.0000000000,79.0000000000,177.0000000000,49.0000000000
1717675215829,347.0000000000,169.0000000000,44.0000000000,79.0000000000,176.0000000000,49.0000000000
1717675215830,344.0000000000,167.0000000000,44.0000000000,79.0000000000,175.0000000000,49.0000000000
1717675215830,342.0000000000,167.0000000000,43.0000000000,79.0000000000,174.0000000000,48.0000000000
1717675215830,339.0000000000,166.0000000000,43.0000000000,78.0000000000,173.0000000000,48.0000000000
1717675215830,337.0000000000,166.0000000000,43.0000000000,77.0000000000,172.0000000000,48.0000000000
1717675215831,335.0000000000,164.0000000000,43.0000000000,77.0000000000,171.0000000000,47.0000000000
1717675215831,332.0000000000,163.0000000000,41.0000000000,76.0000000000,169.0000000000,47.0000000000
1717675215831,330.0000000000,163.0000000000,41.0000000000,76.0000000000,172.0000000000,48.0000000000
1717675215831,327.0000000000,163.0000000000,41.0000000000,75.0000000000,250.0000000000,47.0000000000
1717675215831,326.0000000000,161.0000000000,40.0000000000,76.0000000000,248.0000000000,46.0000000000
1717675215832,323.0000000000,159.0000000000,41.0000000000,75.0000000000,246.0000000000,46.0000000000
1717675215832,321.0000000000,159.0000000000,39.0000000000,74.0000000000,244.0000000000,46.0000000000
1717675215832,319.0000000000,159.0000000000,39.0000000000,73.0000000000,242.0000000000,46.0000000000
1717675215833,317.0000000000,158.0000000000,39.0000000000,73.0000000000,241.0000000000,46.0000000000
1717675215833,315.0000000000,156.0000000000,39.0000000000,71.0000000000,240.0000000000,45.0000000000
1717675215833,312.0000000000,156.0000000000,39.0000000000,71.0000000000,238.0000000000,44.0000000000
1717675215834,310.0000000000,156.0000000000,39.0000000000,71.0000000000,236.0000000000,44.0000000000
1717675215834,308.0000000000,153.0000000000,38.0000000000,71.0000000000,235.0000000000,44.0000000000
1717675215834,307.0000000000,153.0000000000,39.0000000000,71.0000000000,232.0000000000,44.0000000000
1717675215853,304.0000000000,152.0000000000,38.0000000000,71.0000000000,231.0000000000,43.0000000000
1717675215854,303.0000000000,152.0000000000,38.0000000000,71.0000000000,230.0000000000,44.0000000000
1717675215854,300.0000000000,151.0000000000,58.0000000000,70.0000000000,228.0000000000,43.0000000000
1717675215855,299.0000000000,150.0000000000,57.0000000000,70.0000000000,227.0000000000,43.0000000000
1717675215855,295.0000000000,150.0000000000,57.0000000000,68.0000000000,225.0000000000,43.0000000000
1717675215855,295.0000000000,148.0000000000,56.0000000000,68.0000000000,224.0000000000,47.0000000000
1717675215855,292.0000000000,147.0000000000,56.0000000000,68.0000000000,223.0000000000,46.0000000000
1717675215855,291.0000000000,147.0000000000,56.0000000000,67.0000000000,220.0000000000,46.0000000000
1717675215856,288.0000000000,145.0000000000,56.0000000000,67.0000000000,220.0000000000,46.0000000000
1717675215856,287.0000000000,145.0000000000,56.0000000000,67.0000000000,218.0000000000,45.0000000000
1717675215879,285.0000000000,144.0000000000,54.0000000000,67.0000000000,217.0000000000,45.0000000000
1717675215881,284.0000000000,143.0000000000,55.0000000000,67.0000000000,216.0000000000,44.0000000000
1717675215881,281.0000000000,143.0000000000,54.0000000000,65.0000000000,215.0000000000,44.0000000000
1717675215881,280.0000000000,142.0000000000,54.0000000000,65.0000000000,212.0000000000,44.0000000000
1717675215882,279.0000000000,142.0000000000,52.0000000000,65.0000000000,211.0000000000,44.0000000000
1717675215882,276.0000000000,140.0000000000,52.0000000000,65.0000000000,210.0000000000,43.0000000000
1717675215882,275.0000000000,140.0000000000,52.0000000000,63.0000000000,209.0000000000,44.0000000000
1717675215882,304.0000000000,139.0000000000,52.0000000000,63.0000000000,207.0000000000,43.0000000000
1717675215883,301.0000000000,138.0000000000,51.0000000000,63.0000000000,206.0000000000,43.0000000000
1717675215883,299.0000000000,137.0000000000,51.0000000000,63.0000000000,205.0000000000,43.0000000000
1717675215883,295.0000000000,136.0000000000,51.0000000000,63.0000000000,204.0000000000,42.0000000000
1717675215884,295.0000000000,141.0000000000,51.0000000000,63.0000000000,203.0000000000,42.0000000000
1717675215884,292.0000000000,151.0000000000,51.0000000000,62.0000000000,201.0000000000,41.0000000000
1717675215884,289.0000000000,161.0000000000,50.0000000000,62.0000000000,199.0000000000,41.0000000000
1717675215885,287.0000000000,159.0000000000,50.0000000000,62.0000000000,199.0000000000,41.0000000000
1717675215885,286.0000000000,159.0000000000,49.0000000000,61.0000000000,198.0000000000,40.0000000000
1717675215907,284.0000000000,158.0000000000,49.0000000000,60.0000000000,196.0000000000,41.0000000000
1717675215909,281.0000000000,156.0000000000,49.0000000000,60.0000000000,195.0000000000,40.0000000000
1717675215909,280.0000000000,156.0000000000,49.0000000000,60.0000000000,195.0000000000,39.0000000000
1717675215909,278.0000000000,154.0000000000,48.0000000000,60.0000000000,193.0000000000,39.0000000000
1717675215909,275.0000000000,153.0000000000,48.0000000000,100.0000000000,192.0000000000,39.0000000000
1717675215910,273.0000000000,152.0000000000,48.0000000000,116.0000000000,190.0000000000,39.0000000000
1717675215910,271.0000000000,152.0000000000,47.0000000000,115.0000000000,189.0000000000,39.0000000000
1717675215910,270.0000000000,151.0000000000,47.0000000000,113.0000000000,188.0000000000,39.0000000000
1717675215910,268.0000000000,149.0000000000,46.0000000000,113.0000000000,187.0000000000,39.0000000000
1717675215911,265.0000000000,148.0000000000,47.0000000000,112.0000000000,186.0000000000,39.0000000000
1717675215911,263.0000000000,147.0000000000,46.0000000000,112.0000000000,185.0000000000,38.0000000000
1717675215912,263.0000000000,146.0000000000,45.0000000000,110.0000000000,184.0000000000,38.0000000000
1717675215912,261.0000000000,145.0000000000,46.0000000000,109.0000000000,183.0000000000,37.0000000000
1717675215912,259.0000000000,144.0000000000,45.0000000000,109.0000000000,182.0000000000,38.0000000000
1717675215912,257.0000000000,143.0000000000,45.0000000000,108.0000000000,180.0000000000,37.0000000000
1717675215935,255.0000000000,143.0000000000,45.0000000000,108.0000000000,179.0000000000,36.0000000000
1717675215936,255.0000000000,142.0000000000,44.0000000000,107.0000000000,178.0000000000,36.0000000000
1717675215936,253.0000000000,140.0000000000,44.0000000000,106.0000000000,177.0000000000,35.0000000000
1717675215936,252.0000000000,140.0000000000,44.0000000000,105.0000000000,176.0000000000,36.0000000000
1717675215936,249.0000000000,139.0000000000,44.0000000000,104.0000000000,176.0000000000,35.0000000000
1717675215936,248.0000000000,138.0000000000,44.0000000000,103.0000000000,174.0000000000,35.0000000000
1717675215936,247.0000000000,137.0000000000,43.0000000000,103.0000000000,173.0000000000,35.0000000000
1717675215936,245.0000000000,135.0000000000,43.0000000000,103.0000000000,172.0000000000,35.0000000000
1717675215936,244.0000000000,135.0000000000,42.0000000000,102.0000000000,172.0000000000,35.0000000000
1717675215936,243.0000000000,135.0000000000,42.0000000000,101.0000000000,171.0000000000,35.0000000000
1717675215937,241.0000000000,134.0000000000,41.0000000000,100.0000000000,169.0000000000,34.0000000000
1717675215937,240.0000000000,134.0000000000,41.0000000000,99.0000000000,167.0000000000,35.0000000000
1717675215953,238.0000000000,132.0000000000,41.0000000000,99.0000000000,167.0000000000,34.0000000000
1717675215954,237.0000000000,131.0000000000,41.0000000000,98.0000000000,166.0000000000,33.0000000000
1717675215955,236.0000000000,131.0000000000,40.0000000000,97.0000000000,165.0000000000,33.0000000000
1717675215955,235.0000000000,131.0000000000,40.0000000000,97.0000000000,164.0000000000,33.0000000000
1717675215956,233.0000000000,129.0000000000,39.0000000000,96.0000000000,163.0000000000,33.0000000000
1717675215956,231.0000000000,129.0000000000,39.0000000000,96.0000000000,163.0000000000,33.0000000000
1717675215956,231.0000000000,127.0000000000,39.0000000000,95.0000000000,162.0000000000,33.0000000000
1717675215956,229.0000000000,127.0000000000,39.0000000000,95.0000000000,161.0000000000,33.0000000000
1717675215956,227.0000000000,127.0000000000,39.0000000000,94.0000000000,159.0000000000,32.0000000000
1717675215957,227.0000000000,126.0000000000,39.0000000000,93.0000000000,159.0000000000,32.0000000000
1717675215957,225.0000000000,126.0000000000,39.0000000000,93.0000000000,158.0000000000,31.0000000000
1717675215975,224.0000000000,164.0000000000,38.0000000000,92.0000000000,157.0000000000,31.0000000000
1717675215976,224.0000000000,161.0000000000,39.0000000000,92.0000000000,164.0000000000,31.0000000000
1717675215976,222.0000000000,161.0000000000,38.0000000000,92.0000000000,163.0000000000,31.0000000000
1717675215977,220.0000000000,159.0000000000,38.0000000000,91.0000000000,161.0000000000,31.0000000000
1717675215977,220.0000000000,158.0000000000,38.0000000000,90.0000000000,161.0000000000,31.0000000000
1717675215977,219.0000000000,157.0000000000,37.0000000000,89.0000000000,159.0000000000,31.0000000000
1717675215977,216.0000000000,156.0000000000,37.0000000000,88.0000000000,159.0000000000,31.0000000000
1717675215978,216.0000000000,156.0000000000,37.0000000000,88.0000000000,158.0000000000,31.0000000000
1717675215978,216.0000000000,155.0000000000,74.0000000000,88.0000000000,157.0000000000,30.0000000000
1717675215978,214.0000000000,153.0000000000,72.0000000000,87.0000000000,156.0000000000,30.0000000000
1717675215979,212.0000000000,152.0000000000,71.0000000000,87.0000000000,156.0000000000,30.0000000000
1717675215999,211.0000000000,152.0000000000,71.0000000000,86.0000000000,154.0000000000,30.0000000000
1717675216000,210.0000000000,150.0000000000,71.0000000000,86.0000000000,153.0000000000,30.0000000000
1717675216000,209.0000000000,150.0000000000,71.0000000000,85.0000000000,152.0000000000,30.0000000000
1717675216001,208.0000000000,148.0000000000,70.0000000000,84.0000000000,152.0000000000,29.0000000000
1717675216001,207.0000000000,147.0000000000,69.0000000000,83.0000000000,151.0000000000,29.0000000000
1717675216001,206.0000000000,147.0000000000,69.0000000000,83.0000000000,150.0000000000,29.0000000000
1717675216001,205.0000000000,145.0000000000,68.0000000000,83.0000000000,149.0000000000,28.0000000000
1717675216001,204.0000000000,144.0000000000,68.0000000000,83.0000000000,148.0000000000,28.0000000000
1717675216001,203.0000000000,143.0000000000,67.0000000000,82.0000000000,147.0000000000,28.0000000000
1717675216002,201.0000000000,143.0000000000,67.0000000000,81.0000000000,147.0000000000,28.0000000000
1717675216002,199.0000000000,142.0000000000,67.0000000000,81.0000000000,146.0000000000,28.0000000000
1717675216002,199.0000000000,141.0000000000,66.0000000000,80.0000000000,145.0000000000,28.0000000000
1717675216002,199.0000000000,140.0000000000,65.0000000000,80.0000000000,144.0000000000,74.0000000000
1717675216025,198.0000000000,140.0000000000,65.0000000000,79.0000000000,143.0000000000,73.0000000000
1717675216027,196.0000000000,139.0000000000,65.0000000000,79.0000000000,143.0000000000,71.0000000000
1717675216028,195.0000000000,137.0000000000,64.0000000000,79.0000000000,142.0000000000,71.0000000000
1717675216029,195.0000000000,136.0000000000,63.0000000000,78.0000000000,141.0000000000,71.0000000000
1717675216029,193.0000000000,135.0000000000,63.0000000000,78.0000000000,140.0000000000,71.0000000000
1717675216029,192.0000000000,135.0000000000,63.0000000000,78.0000000000,140.0000000000,70.0000000000
1717675216030,192.0000000000,134.0000000000,63.0000000000,77.0000000000,139.0000000000,70.0000000000
1717675216030,191.0000000000,134.0000000000,63.0000000000,76.0000000000,137.0000000000,68.0000000000
1717675216030,190.0000000000,132.0000000000,62.0000000000,76.0000000000,137.0000000000,68.0000000000
1717675216031,189.0000000000,131.0000000000,62.0000000000,76.0000000000,137.0000000000,68.0000000000
1717675216032,188.0000000000,131.0000000000,62.0000000000,75.0000000000,137.0000000000,67.0000000000
1717675216032,187.0000000000,130.0000000000,61.0000000000,75.0000000000,137.0000000000,67.0000000000
1717675216032,185.0000000000,129.0000000000,60.0000000000,74.0000000000,135.0000000000,67.0000000000
1717675216033,184.0000000000,129.0000000000,60.0000000000,73.0000000000,135.0000000000,67.0000000000
1717675216033,332.0000000000,127.0000000000,60.0000000000,72.0000000000,135.0000000000,66.0000000000
1717675216033,393.0000000000,127.0000000000,60.0000000000,71.0000000000,134.0000000000,66.0000000000
1717675216056,389.0000000000,127.0000000000,59.0000000000,71.0000000000,133.0000000000,65.0000000000
1717675216058,385.0000000000,126.0000000000,59.0000000000,71.0000000000,133.0000000000,64.0000000000
1717675216058,382.0000000000,141.0000000000,59.0000000000,71.0000000000,131.0000000000,63.0000000000
1717675216058,379.0000000000,166.0000000000,58.0000000000,71.0000000000,131.0000000000,63.0000000000
1717675216058,376.0000000000,166.0000000000,57.0000000000,70.0000000000,131.0000000000,63.0000000000
1717675216058,372.0000000000,164.0000000000,57.0000000000,70.0000000000,129.0000000000,63.0000000000
1717675216058,369.0000000000,163.0000000000,57.0000000000,70.0000000000,129.0000000000,63.0000000000
