timestamp,Channel 1,Channel 2,Channel 3,Channel 4,Channel 5,Channel 6
1717675260073,6.0000000000,0.0000000000,0.0000000000,71.0000000000,38.0000000000,0.0000000000
1717675260074,5.0000000000,0.0000000000,0.0000000000,71.0000000000,38.0000000000,0.0000000000
1717675260074,5.0000000000,0.0000000000,0.0000000000,71.0000000000,38.0000000000,0.0000000000
1717675260074,5.0000000000,0.0000000000,0.0000000000,71.0000000000,37.0000000000,0.0000000000
1717675260075,6.0000000000,0.0000000000,0.0000000000,71.0000000000,38.0000000000,0.0000000000
1717675260075,6.0000000000,0.0000000000,0.0000000000,71.0000000000,37.0000000000,0.0000000000
1717675260075,5.0000000000,0.0000000000,0.0000000000,70.0000000000,37.0000000000,0.0000000000
1717675260075,6.0000000000,0.0000000000,0.0000000000,70.0000000000,37.0000000000,0.0000000000
1717675260076,6.0000000000,0.0000000000,0.0000000000,69.0000000000,36.0000000000,0.0000000000
1717675260076,6.0000000000,0.0000000000,0.0000000000,69.0000000000,36.0000000000,0.0000000000
1717675260076,6.0000000000,0.0000000000,0.0000000000,68.0000000000,36.0000000000,0.0000000000
1717675260076,5.0000000000,0.0000000000,0.0000000000,68.0000000000,36.0000000000,0.0000000000
1717675260077,6.0000000000,0.0000000000,0.0000000000,68.0000000000,36.0000000000,0.0000000000
1717675260077,6.0000000000,0.0000000000,0.0000000000,67.0000000000,36.0000000000,0.0000000000
1717675260077,6.0000000000,0.0000000000,0.0000000000,68.0000000000,36.0000000000,0.0000000000
1717675260077,6.0000000000,0.0000000000,0.0000000000,67.0000000000,35.0000000000,0.0000000000
1717675260077,5.0000000000,0.0000000000,0.0000000000,67.0000000000,35.0000000000,0.0000000000
1717675260078,6.0000000000,0.0000000000,0.0000000000,67.0000000000,35.0000000000,0.0000000000
1717675260078,6.0000000000,0.0000000000,0.0000000000,67.0000000000,35.0000000000,0.0000000000
1717675260079,6.0000000000,0.0000000000,0.0000000000,67.0000000000,35.0000000000,0.0000000000
1717675260079,6.0000000000,0.0000000000,0.0000000000,67.0000000000,35.0000000000,0.0000000000
1717675260079,5.0000000000,0.0000000000,0.0000000000,66.0000000000,35.0000000000,0.0000000000
1717675260079,6.0000000000,0.0000000000,0.0000000000,65.0000000000,35.0000000000,0.0000000000
1717675260080,5.0000000000,0.0000000000,0.0000000000,65.0000000000,34.0000000000,0.0000000000
1717675260080,6.0000000000,0.0000000000,0.0000000000,65.0000000000,34.0000000000,0.0000000000
1717675260080,6.0000000000,0.0000000000,0.0000000000,65.0000000000,34.0000000000,0.0000000000
1717675260082,6.0000000000,0.0000000000,0.0000000000,64.0000000000,34.0000000000,0.0000000000
1717675260082,6.0000000000,0.0000000000,0.0000000000,64.0000000000,34.0000000000,0.0000000000
1717675260082,6.0000000000,0.0000000000,0.0000000000,63.0000000000,34.0000000000,0.0000000000
1717675260082,6.0000000000,0.0000000000,0.0000000000,63.0000000000,33.0000000000,0.0000000000
1717675260083,5.0000000000,0.0000000000,0.0000000000,63.0000000000,33.0000000000,0.0000000000
1717675260084,6.0000000000,0.0000000000,0.0000000000,63.0000000000,33.0000000000,0.0000000000
1717675260084,5.0000000000,0.0000000000,0.0000000000,63.0000000000,33.0000000000,0.0000000000
1717675260085,5.0000000000,0.0000000000,0.0000000000,63.0000000000,33.0000000000,0.0000000000
1717675260085,5.0000000000,0.0000000000,0.0000000000,63.0000000000,33.0000000000,0.0000000000
1717675260085,5.0000000000,0.0000000000,0.0000000000,63.0000000000,32.0000000000,0.0000000000
1717675260085,5.0000000000,0.0000000000,0.0000000000,63.0000000000,33.0000000000,0.0000000000
1717675260086,5.0000000000,0.0000000000,0.0000000000,62.0000000000,32.0000000000,0.0000000000
1717675260113,5.0000000000,0.0000000000,0.0000000000,62.0000000000,32.0000000000,0.0000000000
1717675260115,6.0000000000,0.0000000000,0.0000000000,62.0000000000,32.0000000000,0.0000000000
1717675260115,6.0000000000,0.0000000000,0.0000000000,62.0000000000,31.0000000000,0.0000000000
1717675260116,6.0000000000,0.0000000000,0.0000000000,62.0000000000,31.0000000000,0.0000000000
1717675260116,6.0000000000,0.0000000000,0.0000000000,61.0000000000,31.0000000000,0.0000000000
1717675260116,6.0000000000,0.0000000000,0.0000000000,60.0000000000,31.0000000000,0.0000000000
1717675260116,6.0000000000,0.0000000000,0.0000000000,60.0000000000,31.0000000000,0.0000000000
1717675260117,6.0000000000,0.0000000000,0.0000000000,60.0000000000,31.0000000000,0.0000000000
1717675260117,6.0000000000,0.0000000000,0.0000000000,60.0000000000,31.0000000000,0.0000000000
1717675260117,6.0000000000,0.0000000000,0.0000000000,60.0000000000,31.0000000000,0.0000000000
1717675260117,6.0000000000,0.0000000000,0.0000000000,60.0000000000,31.0000000000,0.0000000000
1717675260118,6.0000000000,0.0000000000,0.0000000000,59.0000000000,31.0000000000,0.0000000000
1717675260118,6.0000000000,0.0000000000,0.0000000000,59.0000000000,31.0000000000,0.0000000000
1717675260118,6.0000000000,0.0000000000,0.0000000000,59.0000000000,31.0000000000,0.0000000000
1717675260118,6.0000000000,0.0000000000,0.0000000000,59.0000000000,31.0000000000,0.0000000000
1717675260119,6.0000000000,0.0000000000,0.0000000000,59.0000000000,31.0000000000,0.0000000000
1717675260119,6.0000000000,0.0000000000,0.0000000000,58.0000000000,31.0000000000,0.0000000000
1717675260119,7.0000000000,0.0000000000,0.0000000000,58.0000000000,30.0000000000,1.0000000000
1717675260119,7.0000000000,0.0000000000,0.0000000000,57.0000000000,30.0000000000,1.0000000000
1717675260120,7.0000000000,0.0000000000,0.0000000000,57.0000000000,30.0000000000,1.0000000000
1717675260120,7.0000000000,0.0000000000,0.0000000000,57.0000000000,30.0000000000,1.0000000000
1717675260120,7.0000000000,0.0000000000,0.0000000000,57.0000000000,30.0000000000,1.0000000000
1717675260120,7.0000000000,0.0000000000,0.0000000000,57.0000000000,30.0000000000,1.0000000000
1717675260120,6.0000000000,0.0000000000,0.0000000000,56.0000000000,30.0000000000,0.0000000000
1717675260120,6.0000000000,0.0000000000,0.0000000000,56.0000000000,29.0000000000,1.0000000000
1717675260120,7.0000000000,0.0000000000,0.0000000000,56.0000000000,29.0000000000,1.0000000000
1717675260164,7.0000000000,0.0000000000,0.0000000000,56.0000000000,29.0000000000,1.0000000000
1717675260165,7.0000000000,0.0000000000,0.0000000000,56.0000000000,30.0000000000,1.0000000000
1717675260165,6.0000000000,0.0000000000,0.0000000000,56.0000000000,29.0000000000,1.0000000000
1717675260165,6.0000000000,0.0000000000,0.0000000000,56.0000000000,29.0000000000,1.0000000000
1717675260165,6.0000000000,0.0000000000,0.0000000000,55.0000000000,29.0000000000,1.0000000000
1717675260165,6.0000000000,0.0000000000,0.0000000000,56.0000000000,29.0000000000,1.0000000000
1717675260165,6.0000000000,0.0000000000,0.0000000000,55.0000000000,29.0000000000,0.0000000000
1717675260165,6.0000000000,0.0000000000,0.0000000000,55.0000000000,29.0000000000,1.0000000000
1717675260165,6.0000000000,0.0000000000,0.0000000000,55.0000000000,29.0000000000,1.0000000000
1717675260165,6.0000000000,0.0000000000,0.0000000000,55.0000000000,28.0000000000,1.0000000000
1717675260165,6.0000000000,0.0000000000,0.0000000000,54.0000000000,28.0000000000,1.0000000000
1717675260166,6.0000000000,0.0000000000,0.0000000000,54.0000000000,28.0000000000,0.0000000000
1717675260166,6.0000000000,0.0000000000,0.0000000000,54.0000000000,28.0000000000,1.0000000000
1717675260166,6.0000000000,0.0000000000,0.0000000000,54.0000000000,28.0000000000,0.0000000000
1717675260166,6.0000000000,0.0000000000,0.0000000000,54.0000000000,28.0000000000,1.0000000000
1717675260166,6.0000000000,0.0000000000,0.0000000000,53.0000000000,28.0000000000,1.0000000000
1717675260166,6.0000000000,0.0000000000,0.0000000000,53.0000000000,27.0000000000,1.0000000000
1717675260166,6.0000000000,0.0000000000,0.0000000000,52.0000000000,28.0000000000,1.0000000000
1717675260166,6.0000000000,0.0000000000,0.0000000000,52.0000000000,28.0000000000,1.0000000000
1717675260166,6.0000000000,0.0000000000,0.0000000000,52.0000000000,27.0000000000,1.0000000000
1717675260166,6.0000000000,0.0000000000,0.0000000000,51.0000000000,28.0000000000,0.0000000000
1717675260167,6.0000000000,0.0000000000,0.0000000000,51.0000000000,28.0000000000,0.0000000000
1717675260167,6.0000000000,0.0000000000,0.0000000000,52.0000000000,27.0000000000,1.0000000000
1717675260167,6.0000000000,0.0000000000,0.0000000000,51.0000000000,27.0000000000,1.0000000000
1717675260167,6.0000000000,0.0000000000,0.0000000000,51.0000000000,27.0000000000,1.0000000000
1717675260167,6.0000000000,0.0000000000,0.0000000000,51.0000000000,27.0000000000,1.0000000000
1717675260167,6.0000000000,0.0000000000,0.0000000000,51.0000000000,27.0000000000,0.0000000000
1717675260167,6.0000000000,0.0000000000,0.0000000000,51.0000000000,27.0000000000,0.0000000000
1717675260167,6.0000000000,0.0000000000,0.0000000000,51.0000000000,27.0000000000,1.0000000000
1717675260167,6.0000000000,0.0000000000,0.0000000000,50.0000000000,27.0000000000,0.0000000000
1717675260167,6.0000000000,0.0000000000,0.0000000000,50.0000000000,26.0000000000,0.0000000000
1717675260168,6.0000000000,0.0000000000,0.0000000000,50.0000000000,26.0000000000,0.0000000000
1717675260168,6.0000000000,0.0000000000,0.0000000000,50.0000000000,26.0000000000,1.0000000000
1717675260168,6.0000000000,0.0000000000,0.0000000000,49.0000000000,26.0000000000,0.0000000000
1717675260168,6.0000000000,0.0000000000,0.0000000000,49.0000000000,26.0000000000,0.0000000000
1717675260168,6.0000000000,0.0000000000,0.0000000000,49.0000000000,25.0000000000,0.0000000000
1717675260168,6.0000000000,0.0000000000,0.0000000000,49.0000000000,25.0000000000,0.0000000000
1717675260168,6.0000000000,0.0000000000,0.0000000000,49.0000000000,25.0000000000,0.0000000000
1717675260193,6.0000000000,0.0000000000,0.0000000000,49.0000000000,25.0000000000,1.0000000000
1717675260194,5.0000000000,0.0000000000,0.0000000000,49.0000000000,25.0000000000,0.0000000000
1717675260194,6.0000000000,0.0000000000,0.0000000000,48.0000000000,25.0000000000,1.0000000000
1717675260195,6.0000000000,0.0000000000,0.0000000000,48.0000000000,25.0000000000,1.0000000000
1717675260195,6.0000000000,0.0000000000,0.0000000000,48.0000000000,25.0000000000,0.0000000000
1717675260195,6.0000000000,0.0000000000,0.0000000000,48.0000000000,25.0000000000,0.0000000000
1717675260195,6.0000000000,0.0000000000,0.0000000000,48.0000000000,24.0000000000,0.0000000000
1717675260196,6.0000000000,0.0000000000,0.0000000000,47.0000000000,25.0000000000,0.0000000000
1717675260196,6.0000000000,0.0000000000,0.0000000000,47.0000000000,25.0000000000,0.0000000000
1717675260196,5.0000000000,0.0000000000,0.0000000000,48.0000000000,25.0000000000,0.0000000000
1717675260197,6.0000000000,0.0000000000,0.0000000000,47.0000000000,25.0000000000,0.0000000000
1717675260197,5.0000000000,0.0000000000,0.0000000000,47.0000000000,25.0000000000,0.0000000000
1717675260197,6.0000000000,0.0000000000,0.0000000000,47.0000000000,25.0000000000,0.0000000000
1717675260197,5.0000000000,0.0000000000,0.0000000000,47.0000000000,25.0000000000,0.0000000000
1717675260198,5.0000000000,0.0000000000,0.0000000000,46.0000000000,25.0000000000,0.0000000000
1717675260198,5.0000000000,0.0000000000,0.0000000000,46.0000000000,25.0000000000,0.0000000000
1717675260198,6.0000000000,0.0000000000,0.0000000000,46.0000000000,25.0000000000,0.0000000000
1717675260198,5.0000000000,0.0000000000,0.0000000000,46.0000000000,25.0000000000,0.0000000000
1717675260198,5.0000000000,0.0000000000,0.0000000000,46.0000000000,24.0000000000,0.0000000000
1717675260198,5.0000000000,0.0000000000,0.0000000000,45.0000000000,25.0000000000,0.0000000000
1717675260198,5.0000000000,0.0000000000,0.0000000000,46.0000000000,24.0000000000,0.0000000000
1717675260198,4.0000000000,0.0000000000,0.0000000000,45.0000000000,24.0000000000,0.0000000000
1717675260198,5.0000000000,0.0000000000,0.0000000000,45.0000000000,24.0000000000,0.0000000000
1717675260213,5.0000000000,0.0000000000,0.0000000000,45.0000000000,24.0000000000,0.0000000000
1717675260213,5.0000000000,0.0000000000,0.0000000000,44.0000000000,24.0000000000,0.0000000000
1717675260214,4.0000000000,0.0000000000,0.0000000000,44.0000000000,24.0000000000,0.0000000000
1717675260214,4.0000000000,0.0000000000,0.0000000000,44.0000000000,24.0000000000,0.0000000000
1717675260214,5.0000000000,0.0000000000,0.0000000000,44.0000000000,24.0000000000,0.0000000000
1717675260214,4.0000000000,0.0000000000,0.0000000000,44.0000000000,24.0000000000,0.0000000000
1717675260214,4.0000000000,0.0000000000,0.0000000000,44.0000000000,24.0000000000,0.0000000000
1717675260214,5.0000000000,0.0000000000,0.0000000000,44.0000000000,24.0000000000,0.0000000000
1717675260214,5.0000000000,0.0000000000,0.0000000000,44.0000000000,24.0000000000,0.0000000000
1717675260214,6.0000000000,0.0000000000,0.0000000000,43.0000000000,24.0000000000,0.0000000000
1717675260214,5.0000000000,0.0000000000,0.0000000000,44.0000000000,24.0000000000,0.0000000000
1717675260214,5.0000000000,0.0000000000,0.0000000000,44.0000000000,24.0000000000,0.0000000000
1717675260214,5.0000000000,0.0000000000,0.0000000000,43.0000000000,24.0000000000,0.0000000000
1717675260229,4.0000000000,0.0000000000,0.0000000000,43.0000000000,23.0000000000,0.0000000000
1717675260231,5.0000000000,0.0000000000,0.0000000000,43.0000000000,23.0000000000,0.0000000000
1717675260231,5.0000000000,0.0000000000,0.0000000000,43.0000000000,24.0000000000,0.0000000000
1717675260231,4.0000000000,0.0000000000,0.0000000000,42.0000000000,24.0000000000,0.0000000000
1717675260232,5.0000000000,0.0000000000,0.0000000000,42.0000000000,24.0000000000,0.0000000000
1717675260232,5.0000000000,0.0000000000,0.0000000000,42.0000000000,24.0000000000,0.0000000000
1717675260232,5.0000000000,0.0000000000,0.0000000000,42.0000000000,26.0000000000,0.0000000000
1717675260232,4.0000000000,0.0000000000,0.0000000000,41.0000000000,25.0000000000,0.0000000000
1717675260232,5.0000000000,0.0000000000,0.0000000000,41.0000000000,25.0000000000,0.0000000000
1717675260232,4.0000000000,0.0000000000,0.0000000000,41.0000000000,25.0000000000,0.0000000000
1717675260232,5.0000000000,0.0000000000,0.0000000000,41.0000000000,25.0000000000,0.0000000000
1717675260233,5.0000000000,0.0000000000,0.0000000000,41.0000000000,25.0000000000,0.0000000000
1717675260233,5.0000000000,0.0000000000,0.0000000000,41.0000000000,24.0000000000,0.0000000000
1717675260233,5.0000000000,0.0000000000,0.0000000000,41.0000000000,25.0000000000,0.0000000000
1717675260234,5.0000000000,0.0000000000,0.0000000000,40.0000000000,24.0000000000,0.0000000000
1717675260234,4.0000000000,0.0000000000,0.0000000000,39.0000000000,24.0000000000,0.0000000000
1717675260246,5.0000000000,0.0000000000,0.0000000000,39.0000000000,24.0000000000,0.0000000000
1717675260247,5.0000000000,0.0000000000,0.0000000000,39.0000000000,24.0000000000,0.0000000000
1717675260247,5.0000000000,0.0000000000,0.0000000000,39.0000000000,24.0000000000,0.0000000000
1717675260247,4.0000000000,0.0000000000,0.0000000000,39.0000000000,24.0000000000,0.0000000000
1717675260247,4.0000000000,0.0000000000,0.0000000000,39.0000000000,24.0000000000,0.0000000000
1717675260247,4.0000000000,0.0000000000,0.0000000000,39.0000000000,24.0000000000,0.0000000000
1717675260247,5.0000000000,0.0000000000,0.0000000000,39.0000000000,24.0000000000,0.0000000000
1717675260247,4.0000000000,0.0000000000,0.0000000000,39.0000000000,24.0000000000,0.0000000000
1717675260248,4.0000000000,0.0000000000,0.0000000000,39.0000000000,24.0000000000,0.0000000000
1717675260260,4.0000000000,0.0000000000,0.0000000000,39.0000000000,24.0000000000,0.0000000000
1717675260261,4.0000000000,0.0000000000,0.0000000000,39.0000000000,24.0000000000,0.0000000000
1717675260261,6.0000000000,0.0000000000,0.0000000000,39.0000000000,24.0000000000,0.0000000000
1717675260261,6.0000000000,0.0000000000,0.0000000000,39.0000000000,24.0000000000,0.0000000000
1717675260261,5.0000000000,0.0000000000,0.0000000000,39.0000000000,24.0000000000,0.0000000000
1717675260261,5.0000000000,0.0000000000,0.0000000000,39.0000000000,24.0000000000,0.0000000000
1717675260261,6.0000000000,0.0000000000,0.0000000000,38.0000000000,24.0000000000,0.0000000000
1717675260262,5.0000000000,0.0000000000,0.0000000000,38.0000000000,23.0000000000,0.0000000000
1717675260262,6.0000000000,0.0000000000,0.0000000000,38.0000000000,24.0000000000,4.0000000000
1717675260262,6.0000000000,0.0000000000,0.0000000000,38.0000000000,22.0000000000,4.0000000000
1717675260262,4.0000000000,0.0000000000,0.0000000000,38.0000000000,23.0000000000,4.0000000000
1717675260263,5.0000000000,0.0000000000,0.0000000000,38.0000000000,23.0000000000,4.0000000000
1717675260263,5.0000000000,0.0000000000,0.0000000000,38.0000000000,23.0000000000,4.0000000000
1717675260278,4.0000000000,0.0000000000,0.0000000000,38.0000000000,22.0000000000,4.0000000000
1717675260279,4.0000000000,0.0000000000,0.0000000000,37.0000000000,22.0000000000,3.0000000000
1717675260279,5.0000000000,0.0000000000,0.0000000000,36.0000000000,23.0000000000,3.0000000000
1717675260279,4.0000000000,0.0000000000,0.0000000000,37.0000000000,22.0000000000,15.0000000000
1717675260279,5.0000000000,0.0000000000,0.0000000000,37.0000000000,22.0000000000,17.0000000000
1717675260279,6.0000000000,0.0000000000,0.0000000000,36.0000000000,22.0000000000,17.0000000000
1717675260279,6.0000000000,0.0000000000,0.0000000000,36.0000000000,22.0000000000,17.0000000000
1717675260280,6.0000000000,0.0000000000,0.0000000000,36.0000000000,22.0000000000,17.0000000000
1717675260280,5.0000000000,0.0000000000,0.0000000000,36.0000000000,22.0000000000,17.0000000000
1717675260280,6.0000000000,0.0000000000,0.0000000000,36.0000000000,22.0000000000,16.0000000000
1717675260280,5.0000000000,0.0000000000,0.0000000000,35.0000000000,22.0000000000,16.0000000000
1717675260280,6.0000000000,0.0000000000,0.0000000000,36.0000000000,21.0000000000,15.0000000000
1717675260294,6.0000000000,0.0000000000,0.0000000000,36.0000000000,22.0000000000,15.0000000000
1717675260294,6.0000000000,0.0000000000,0.0000000000,35.0000000000,39.0000000000,16.0000000000
1717675260294,6.0000000000,0.0000000000,0.0000000000,35.0000000000,39.0000000000,15.0000000000
1717675260294,5.0000000000,0.0000000000,0.0000000000,35.0000000000,39.0000000000,15.0000000000
1717675260295,5.0000000000,0.0000000000,0.0000000000,35.0000000000,38.0000000000,15.0000000000
1717675260295,5.0000000000,0.0000000000,0.0000000000,35.0000000000,38.0000000000,15.0000000000
1717675260295,6.0000000000,0.0000000000,0.0000000000,35.0000000000,38.0000000000,15.0000000000
1717675260295,7.0000000000,0.0000000000,0.0000000000,35.0000000000,38.0000000000,15.0000000000
1717675260295,16.0000000000,0.0000000000,0.0000000000,35.0000000000,38.0000000000,15.0000000000
1717675260295,17.0000000000,0.0000000000,0.0000000000,35.0000000000,37.0000000000,15.0000000000
1717675260295,16.0000000000,0.0000000000,0.0000000000,35.0000000000,37.0000000000,15.0000000000
1717675260295,16.0000000000,0.0000000000,0.0000000000,34.0000000000,37.0000000000,15.0000000000
1717675260308,16.0000000000,0.0000000000,0.0000000000,34.0000000000,36.0000000000,15.0000000000
1717675260309,15.0000000000,0.0000000000,0.0000000000,34.0000000000,36.0000000000,15.0000000000
1717675260309,15.0000000000,0.0000000000,0.0000000000,33.0000000000,36.0000000000,15.0000000000
1717675260309,15.0000000000,0.0000000000,0.0000000000,34.0000000000,36.0000000000,15.0000000000
1717675260309,15.0000000000,0.0000000000,0.0000000000,33.0000000000,36.0000000000,15.0000000000
1717675260309,15.0000000000,0.0000000000,1.0000000000,33.0000000000,35.0000000000,15.0000000000
1717675260309,15.0000000000,0.0000000000,0.0000000000,33.0000000000,35.0000000000,15.0000000000
1717675260309,15.0000000000,0.0000000000,0.0000000000,33.0000000000,35.0000000000,15.0000000000
1717675260309,15.0000000000,0.0000000000,0.0000000000,33.0000000000,35.0000000000,14.0000000000
1717675260322,15.0000000000,0.0000000000,0.0000000000,33.0000000000,35.0000000000,15.0000000000
1717675260323,15.0000000000,0.0000000000,0.0000000000,33.0000000000,35.0000000000,15.0000000000
1717675260323,15.0000000000,0.0000000000,0.0000000000,32.0000000000,35.0000000000,14.0000000000
1717675260323,15.0000000000,0.0000000000,0.0000000000,32.0000000000,35.0000000000,14.0000000000
1717675260323,15.0000000000,0.0000000000,0.0000000000,31.0000000000,38.0000000000,14.0000000000
1717675260323,15.0000000000,0.0000000000,0.0000000000,31.0000000000,148.0000000000,14.0000000000
1717675260323,15.0000000000,0.0000000000,0.0000000000,32.0000000000,170.0000000000,14.0000000000
1717675260323,15.0000000000,0.0000000000,1.0000000000,31.0000000000,167.0000000000,14.0000000000
1717675260324,15.0000000000,0.0000000000,7.0000000000,31.0000000000,167.0000000000,14.0000000000
1717675260324,15.0000000000,0.0000000000,8.0000000000,31.0000000000,166.0000000000,14.0000000000
1717675260324,15.0000000000,0.0000000000,8.0000000000,31.0000000000,165.0000000000,14.0000000000
1717675260338,14.0000000000,0.0000000000,7.0000000000,31.0000000000,163.0000000000,14.0000000000
1717675260338,14.0000000000,0.0000000000,7.0000000000,31.0000000000,163.0000000000,13.0000000000
1717675260338,15.0000000000,0.0000000000,7.0000000000,31.0000000000,162.0000000000,16.0000000000
1717675260338,15.0000000000,0.0000000000,7.0000000000,31.0000000000,161.0000000000,16.0000000000
1717675260339,15.0000000000,0.0000000000,7.0000000000,31.0000000000,159.0000000000,15.0000000000
1717675260339,15.0000000000,0.0000000000,7.0000000000,31.0000000000,159.0000000000,15.0000000000
1717675260339,14.0000000000,0.0000000000,7.0000000000,30.0000000000,158.0000000000,15.0000000000
1717675260339,15.0000000000,0.0000000000,7.0000000000,30.0000000000,158.0000000000,15.0000000000
1717675260339,14.0000000000,0.0000000000,9.0000000000,30.0000000000,157.0000000000,15.0000000000
1717675260339,14.0000000000,0.0000000000,12.0000000000,30.0000000000,156.0000000000,15.0000000000
1717675260355,14.0000000000,0.0000000000,12.0000000000,30.0000000000,155.0000000000,15.0000000000
1717675260356,14.0000000000,0.0000000000,12.0000000000,30.0000000000,154.0000000000,15.0000000000
1717675260356,14.0000000000,0.0000000000,11.0000000000,30.0000000000,153.0000000000,15.0000000000
1717675260356,14.0000000000,0.0000000000,11.0000000000,30.0000000000,152.0000000000,15.0000000000
1717675260356,14.0000000000,0.0000000000,12.0000000000,30.0000000000,152.0000000000,15.0000000000
1717675260356,14.0000000000,0.0000000000,11.0000000000,30.0000000000,151.0000000000,15.0000000000
1717675260357,14.0000000000,0.0000000000,11.0000000000,29.0000000000,150.0000000000,15.0000000000
1717675260357,14.0000000000,0.0000000000,11.0000000000,29.0000000000,149.0000000000,15.0000000000
1717675260357,14.0000000000,0.0000000000,11.0000000000,29.0000000000,148.0000000000,15.0000000000
1717675260357,14.0000000000,0.0000000000,11.0000000000,29.0000000000,147.0000000000,14.0000000000
1717675260370,14.0000000000,0.0000000000,11.0000000000,29.0000000000,147.0000000000,14.0000000000
1717675260371,14.0000000000,0.0000000000,11.0000000000,28.0000000000,145.0000000000,14.0000000000
1717675260371,13.0000000000,0.0000000000,11.0000000000,28.0000000000,145.0000000000,14.0000000000
1717675260371,14.0000000000,0.0000000000,11.0000000000,28.0000000000,144.0000000000,14.0000000000
1717675260371,13.0000000000,0.0000000000,11.0000000000,28.0000000000,143.0000000000,14.0000000000
1717675260371,13.0000000000,0.0000000000,11.0000000000,28.0000000000,143.0000000000,14.0000000000
1717675260371,13.0000000000,0.0000000000,11.0000000000,28.0000000000,142.0000000000,14.0000000000
1717675260371,35.0000000000,0.0000000000,11.0000000000,28.0000000000,141.0000000000,14.0000000000
1717675260388,35.0000000000,0.0000000000,10.0000000000,28.0000000000,140.0000000000,14.0000000000
1717675260389,35.0000000000,0.0000000000,10.0000000000,28.0000000000,140.0000000000,13.0000000000
1717675260389,35.0000000000,0.0000000000,10.0000000000,28.0000000000,139.0000000000,14.0000000000
1717675260389,34.0000000000,0.0000000000,10.0000000000,27.0000000000,139.0000000000,13.0000000000
1717675260390,34.0000000000,0.0000000000,10.0000000000,28.0000000000,138.0000000000,13.0000000000
1717675260390,33.0000000000,0.0000000000,9.0000000000,27.0000000000,139.0000000000,13.0000000000
1717675260390,33.0000000000,0.0000000000,22.0000000000,27.0000000000,137.0000000000,13.0000000000
1717675260390,33.0000000000,0.0000000000,35.0000000000,30.0000000000,137.0000000000,13.0000000000
1717675260390,33.0000000000,0.0000000000,33.0000000000,30.0000000000,135.0000000000,13.0000000000
1717675260390,32.0000000000,0.0000000000,33.0000000000,29.0000000000,135.0000000000,13.0000000000
1717675260390,32.0000000000,0.0000000000,33.0000000000,29.0000000000,135.0000000000,13.0000000000
1717675260390,32.0000000000,0.0000000000,33.0000000000,29.0000000000,134.0000000000,13.0000000000
1717675260390,31.0000000000,0.0000000000,33.0000000000,29.0000000000,134.0000000000,12.0000000000
1717675260403,31.0000000000,0.0000000000,33.0000000000,29.0000000000,132.0000000000,12.0000000000
1717675260404,31.0000000000,0.0000000000,32.0000000000,28.0000000000,131.0000000000,12.0000000000
1717675260404,31.0000000000,0.0000000000,32.0000000000,28.0000000000,131.0000000000,12.0000000000
1717675260404,31.0000000000,0.0000000000,31.0000000000,28.0000000000,131.0000000000,12.0000000000
1717675260405,31.0000000000,7.0000000000,31.0000000000,28.0000000000,130.0000000000,12.0000000000
1717675260405,31.0000000000,19.0000000000,31.0000000000,28.0000000000,129.0000000000,12.0000000000
1717675260405,31.0000000000,19.0000000000,31.0000000000,28.0000000000,141.0000000000,12.0000000000
1717675260405,31.0000000000,19.0000000000,31.0000000000,27.0000000000,151.0000000000,12.0000000000
1717675260405,31.0000000000,18.0000000000,31.0000000000,27.0000000000,150.0000000000,15.0000000000
1717675260405,31.0000000000,18.0000000000,31.0000000000,28.0000000000,149.0000000000,24.0000000000
1717675260418,30.0000000000,18.0000000000,31.0000000000,27.0000000000,147.0000000000,23.0000000000
1717675260419,31.0000000000,18.0000000000,30.0000000000,27.0000000000,147.0000000000,23.0000000000
1717675260419,31.0000000000,18.0000000000,30.0000000000,27.0000000000,146.0000000000,23.0000000000
1717675260419,36.0000000000,17.0000000000,30.0000000000,27.0000000000,145.0000000000,22.0000000000
1717675260419,35.0000000000,17.0000000000,30.0000000000,27.0000000000,144.0000000000,22.0000000000
1717675260419,35.0000000000,17.0000000000,30.0000000000,26.0000000000,143.0000000000,22.0000000000
1717675260419,35.0000000000,17.0000000000,36.0000000000,93.0000000000,143.0000000000,22.0000000000
1717675260435,35.0000000000,17.0000000000,36.0000000000,92.0000000000,142.0000000000,22.0000000000
1717675260436,35.0000000000,17.0000000000,35.0000000000,91.0000000000,141.0000000000,22.0000000000
1717675260436,35.0000000000,17.0000000000,35.0000000000,89.0000000000,140.0000000000,22.0000000000
1717675260436,34.0000000000,17.0000000000,35.0000000000,89.0000000000,140.0000000000,21.0000000000
1717675260436,34.0000000000,17.0000000000,35.0000000000,88.0000000000,139.0000000000,22.0000000000
1717675260436,34.0000000000,16.0000000000,35.0000000000,88.0000000000,137.0000000000,21.0000000000
1717675260436,33.0000000000,16.0000000000,35.0000000000,87.0000000000,137.0000000000,22.0000000000
1717675260436,33.0000000000,16.0000000000,35.0000000000,87.0000000000,135.0000000000,48.0000000000
1717675260436,33.0000000000,16.0000000000,34.0000000000,86.0000000000,135.0000000000,50.0000000000
1717675260452,39.0000000000,15.0000000000,33.0000000000,86.0000000000,135.0000000000,49.0000000000
1717675260452,38.0000000000,16.0000000000,33.0000000000,85.0000000000,134.0000000000,49.0000000000
1717675260452,38.0000000000,15.0000000000,33.0000000000,84.0000000000,133.0000000000,49.0000000000
1717675260452,38.0000000000,15.0000000000,33.0000000000,84.0000000000,132.0000000000,48.0000000000
1717675260453,37.0000000000,15.0000000000,33.0000000000,84.0000000000,131.0000000000,48.0000000000
1717675260453,37.0000000000,15.0000000000,33.0000000000,83.0000000000,131.0000000000,48.0000000000
1717675260453,36.0000000000,15.0000000000,33.0000000000,83.0000000000,130.0000000000,47.0000000000
1717675260453,36.0000000000,15.0000000000,32.0000000000,83.0000000000,129.0000000000,47.0000000000
1717675260453,36.0000000000,15.0000000000,33.0000000000,83.0000000000,129.0000000000,47.0000000000
1717675260453,66.0000000000,96.0000000000,32.0000000000,81.0000000000,127.0000000000,47.0000000000
1717675260473,177.0000000000,94.0000000000,32.0000000000,81.0000000000,127.0000000000,46.0000000000
1717675260474,262.0000000000,92.0000000000,31.0000000000,123.0000000000,127.0000000000,46.0000000000
1717675260474,259.0000000000,92.0000000000,31.0000000000,121.0000000000,126.0000000000,46.0000000000
1717675260474,255.0000000000,91.0000000000,31.0000000000,120.0000000000,125.0000000000,45.0000000000
1717675260474,254.0000000000,90.0000000000,31.0000000000,120.0000000000,124.0000000000,45.0000000000
1717675260474,252.0000000000,89.0000000000,31.0000000000,119.0000000000,124.0000000000,44.0000000000
1717675260474,250.0000000000,89.0000000000,31.0000000000,118.0000000000,124.0000000000,44.0000000000
1717675260475,248.0000000000,88.0000000000,31.0000000000,116.0000000000,123.0000000000,44.0000000000
1717675260475,246.0000000000,88.0000000000,31.0000000000,116.0000000000,121.0000000000,44.0000000000
1717675260475,244.0000000000,87.0000000000,30.0000000000,115.0000000000,121.0000000000,43.0000000000
1717675260475,243.0000000000,87.0000000000,30.0000000000,114.0000000000,120.0000000000,43.0000000000
1717675260475,241.0000000000,86.0000000000,30.0000000000,113.0000000000,120.0000000000,43.0000000000
1717675260476,239.0000000000,85.0000000000,30.0000000000,112.0000000000,120.0000000000,43.0000000000
1717675260492,238.0000000000,84.0000000000,30.0000000000,112.0000000000,118.0000000000,42.0000000000
1717675260493,236.0000000000,84.0000000000,29.0000000000,112.0000000000,118.0000000000,42.0000000000
1717675260493,235.0000000000,83.0000000000,29.0000000000,111.0000000000,116.0000000000,41.0000000000
1717675260493,232.0000000000,83.0000000000,29.0000000000,110.0000000000,116.0000000000,41.0000000000
1717675260493,231.0000000000,82.0000000000,29.0000000000,109.0000000000,115.0000000000,41.0000000000
1717675260493,230.0000000000,82.0000000000,29.0000000000,108.0000000000,115.0000000000,41.0000000000
1717675260493,227.0000000000,81.0000000000,29.0000000000,108.0000000000,114.0000000000,39.0000000000
1717675260493,227.0000000000,81.0000000000,29.0000000000,107.0000000000,113.0000000000,39.0000000000
1717675260493,225.0000000000,80.0000000000,28.0000000000,107.0000000000,113.0000000000,39.0000000000
1717675260510,224.0000000000,79.0000000000,28.0000000000,105.0000000000,112.0000000000,39.0000000000
1717675260510,222.0000000000,79.0000000000,28.0000000000,105.0000000000,123.0000000000,39.0000000000
1717675260511,220.0000000000,79.0000000000,28.0000000000,103.0000000000,124.0000000000,39.0000000000
1717675260511,219.0000000000,78.0000000000,28.0000000000,103.0000000000,204.0000000000,39.0000000000
1717675260511,217.0000000000,78.0000000000,28.0000000000,103.0000000000,201.0000000000,39.0000000000
1717675260511,216.0000000000,78.0000000000,28.0000000000,103.0000000000,199.0000000000,39.0000000000
1717675260511,215.0000000000,77.0000000000,27.0000000000,102.0000000000,199.0000000000,38.0000000000
1717675260511,214.0000000000,76.0000000000,27.0000000000,101.0000000000,196.0000000000,38.0000000000
1717675260511,212.0000000000,76.0000000000,27.0000000000,102.0000000000,195.0000000000,38.0000000000
1717675260511,211.0000000000,76.0000000000,27.0000000000,159.0000000000,194.0000000000,38.0000000000
1717675260511,209.0000000000,75.0000000000,27.0000000000,159.0000000000,192.0000000000,38.0000000000
1717675260525,208.0000000000,75.0000000000,27.0000000000,157.0000000000,192.0000000000,37.0000000000
1717675260526,207.0000000000,73.0000000000,26.0000000000,156.0000000000,190.0000000000,37.0000000000
1717675260526,206.0000000000,73.0000000000,26.0000000000,155.0000000000,190.0000000000,37.0000000000
1717675260526,204.0000000000,73.0000000000,25.0000000000,153.0000000000,188.0000000000,36.0000000000
1717675260526,203.0000000000,71.0000000000,26.0000000000,153.0000000000,187.0000000000,36.0000000000
1717675260526,201.0000000000,71.0000000000,25.0000000000,152.0000000000,185.0000000000,36.0000000000
1717675260540,199.0000000000,71.0000000000,25.0000000000,151.0000000000,184.0000000000,35.0000000000
1717675260540,199.0000000000,71.0000000000,25.0000000000,150.0000000000,183.0000000000,36.0000000000
1717675260540,198.0000000000,71.0000000000,25.0000000000,148.0000000000,182.0000000000,39.0000000000
1717675260541,196.0000000000,70.0000000000,25.0000000000,148.0000000000,180.0000000000,39.0000000000
1717675260541,195.0000000000,70.0000000000,25.0000000000,147.0000000000,179.0000000000,39.0000000000
1717675260541,194.0000000000,70.0000000000,25.0000000000,146.0000000000,179.0000000000,39.0000000000
1717675260541,193.0000000000,69.0000000000,24.0000000000,145.0000000000,186.0000000000,38.0000000000
1717675260541,192.0000000000,68.0000000000,24.0000000000,143.0000000000,187.0000000000,38.0000000000
1717675260541,191.0000000000,68.0000000000,24.0000000000,143.0000000000,186.0000000000,38.0000000000
1717675260555,190.0000000000,67.0000000000,24.0000000000,142.0000000000,185.0000000000,38.0000000000
1717675260555,188.0000000000,67.0000000000,24.0000000000,141.0000000000,184.0000000000,38.0000000000
1717675260555,188.0000000000,67.0000000000,24.0000000000,140.0000000000,183.0000000000,36.0000000000
1717675260555,187.0000000000,66.0000000000,24.0000000000,140.0000000000,181.0000000000,37.0000000000
1717675260556,185.0000000000,66.0000000000,24.0000000000,138.0000000000,179.0000000000,36.0000000000
1717675260556,184.0000000000,66.0000000000,24.0000000000,137.0000000000,179.0000000000,36.0000000000
1717675260556,183.0000000000,65.0000000000,24.0000000000,136.0000000000,177.0000000000,36.0000000000
1717675260576,182.0000000000,65.0000000000,24.0000000000,135.0000000000,176.0000000000,36.0000000000
1717675260577,181.0000000000,64.0000000000,24.0000000000,135.0000000000,176.0000000000,35.0000000000
1717675260577,179.0000000000,64.0000000000,23.0000000000,134.0000000000,175.0000000000,35.0000000000
1717675260577,179.0000000000,63.0000000000,24.0000000000,133.0000000000,174.0000000000,35.0000000000
1717675260578,178.0000000000,63.0000000000,24.0000000000,132.0000000000,172.0000000000,35.0000000000
1717675260578,177.0000000000,63.0000000000,24.0000000000,131.0000000000,172.0000000000,35.0000000000
1717675260578,176.0000000000,63.0000000000,23.0000000000,131.0000000000,170.0000000000,34.0000000000
1717675260578,175.0000000000,62.0000000000,24.0000000000,130.0000000000,168.0000000000,34.0000000000
1717675260579,174.0000000000,62.0000000000,23.0000000000,129.0000000000,167.0000000000,34.0000000000
1717675260579,172.0000000000,62.0000000000,23.0000000000,127.0000000000,167.0000000000,33.0000000000
1717675260579,172.0000000000,61.0000000000,23.0000000000,127.0000000000,166.0000000000,33.0000000000
1717675260581,171.0000000000,61.0000000000,22.0000000000,127.0000000000,165.0000000000,33.0000000000
1717675260581,169.0000000000,60.0000000000,23.0000000000,126.0000000000,163.0000000000,33.0000000000
1717675260581,168.0000000000,60.0000000000,22.0000000000,125.0000000000,163.0000000000,33.0000000000
1717675260581,167.0000000000,60.0000000000,22.0000000000,124.0000000000,162.0000000000,33.0000000000
1717675260611,167.0000000000,59.0000000000,22.0000000000,124.0000000000,161.0000000000,32.0000000000
1717675260613,166.0000000000,60.0000000000,22.0000000000,123.0000000000,159.0000000000,32.0000000000
1717675260613,164.0000000000,59.0000000000,22.0000000000,122.0000000000,159.0000000000,31.0000000000
1717675260614,184.0000000000,59.0000000000,22.0000000000,121.0000000000,158.0000000000,31.0000000000
1717675260614,183.0000000000,57.0000000000,21.0000000000,120.0000000000,158.0000000000,31.0000000000
1717675260614,182.0000000000,57.0000000000,21.0000000000,120.0000000000,156.0000000000,31.0000000000
1717675260614,179.0000000000,57.0000000000,21.0000000000,120.0000000000,156.0000000000,31.0000000000
1717675260614,179.0000000000,57.0000000000,20.0000000000,118.0000000000,155.0000000000,31.0000000000
1717675260614,177.0000000000,57.0000000000,29.0000000000,119.0000000000,154.0000000000,31.0000000000
1717675260614,176.0000000000,56.0000000000,31.0000000000,118.0000000000,199.0000000000,31.0000000000
1717675260614,176.0000000000,56.0000000000,31.0000000000,117.0000000000,196.0000000000,31.0000000000
1717675260615,174.0000000000,56.0000000000,31.0000000000,116.0000000000,195.0000000000,30.0000000000
1717675260615,173.0000000000,56.0000000000,30.0000000000,115.0000000000,194.0000000000,38.0000000000
1717675260615,172.0000000000,56.0000000000,30.0000000000,115.0000000000,192.0000000000,83.0000000000
1717675260615,171.0000000000,55.0000000000,30.0000000000,114.0000000000,192.0000000000,82.0000000000
1717675260615,169.0000000000,55.0000000000,30.0000000000,114.0000000000,190.0000000000,81.0000000000
1717675260616,167.0000000000,54.0000000000,30.0000000000,113.0000000000,189.0000000000,81.0000000000
1717675260616,167.0000000000,54.0000000000,30.0000000000,113.0000000000,188.0000000000,80.0000000000
1717675260631,166.0000000000,54.0000000000,29.0000000000,112.0000000000,186.0000000000,79.0000000000
1717675260632,165.0000000000,53.0000000000,28.0000000000,111.0000000000,185.0000000000,79.0000000000
1717675260632,164.0000000000,53.0000000000,28.0000000000,111.0000000000,184.0000000000,79.0000000000
1717675260632,163.0000000000,52.0000000000,28.0000000000,110.0000000000,183.0000000000,78.0000000000
1717675260632,162.0000000000,52.0000000000,28.0000000000,110.0000000000,182.0000000000,77.0000000000
1717675260632,161.0000000000,51.0000000000,28.0000000000,108.0000000000,180.0000000000,77.0000000000
1717675260632,160.0000000000,51.0000000000,28.0000000000,108.0000000000,179.0000000000,76.0000000000
1717675260632,159.0000000000,51.0000000000,28.0000000000,107.0000000000,178.0000000000,76.0000000000
1717675260647,158.0000000000,51.0000000000,28.0000000000,107.0000000000,177.0000000000,76.0000000000
1717675260649,158.0000000000,51.0000000000,27.0000000000,106.0000000000,176.0000000000,75.0000000000
1717675260649,156.0000000000,50.0000000000,27.0000000000,105.0000000000,175.0000000000,75.0000000000
1717675260650,156.0000000000,50.0000000000,27.0000000000,104.0000000000,174.0000000000,73.0000000000
1717675260650,155.0000000000,49.0000000000,27.0000000000,103.0000000000,172.0000000000,73.0000000000
1717675260650,153.0000000000,49.0000000000,27.0000000000,103.0000000000,172.0000000000,72.0000000000
1717675260651,153.0000000000,49.0000000000,27.0000000000,103.0000000000,212.0000000000,71.0000000000
1717675260651,152.0000000000,49.0000000000,26.0000000000,103.0000000000,229.0000000000,71.0000000000
1717675260651,152.0000000000,48.0000000000,26.0000000000,102.0000000000,227.0000000000,71.0000000000
1717675260652,151.0000000000,48.0000000000,26.0000000000,102.0000000000,225.0000000000,71.0000000000
1717675260652,150.0000000000,48.0000000000,25.0000000000,100.0000000000,224.0000000000,71.0000000000
1717675260670,149.0000000000,48.0000000000,25.0000000000,100.0000000000,223.0000000000,71.0000000000
1717675260671,253.0000000000,52.0000000000,25.0000000000,99.0000000000,221.0000000000,70.0000000000
1717675260671,285.0000000000,52.0000000000,36.0000000000,99.0000000000,220.0000000000,70.0000000000
1717675260671,281.0000000000,52.0000000000,36.0000000000,98.0000000000,217.0000000000,69.0000000000
1717675260671,280.0000000000,51.0000000000,36.0000000000,98.0000000000,216.0000000000,68.0000000000
1717675260671,277.0000000000,51.0000000000,35.0000000000,97.0000000000,216.0000000000,68.0000000000
1717675260671,275.0000000000,51.0000000000,35.0000000000,96.0000000000,214.0000000000,67.0000000000
1717675260672,273.0000000000,51.0000000000,35.0000000000,96.0000000000,212.0000000000,67.0000000000
1717675260672,271.0000000000,50.0000000000,35.0000000000,96.0000000000,211.0000000000,67.0000000000
1717675260672,269.0000000000,50.0000000000,35.0000000000,95.0000000000,210.0000000000,67.0000000000
1717675260672,268.0000000000,49.0000000000,35.0000000000,97.0000000000,209.0000000000,66.0000000000
1717675260672,265.0000000000,49.0000000000,34.0000000000,99.0000000000,207.0000000000,65.0000000000
1717675260686,263.0000000000,49.0000000000,33.0000000000,99.0000000000,206.0000000000,65.0000000000
1717675260687,262.0000000000,49.0000000000,34.0000000000,98.0000000000,204.0000000000,65.0000000000
1717675260687,260.0000000000,48.0000000000,33.0000000000,97.0000000000,204.0000000000,64.0000000000
1717675260687,258.0000000000,48.0000000000,33.0000000000,96.0000000000,203.0000000000,63.0000000000
1717675260687,257.0000000000,48.0000000000,33.0000000000,96.0000000000,201.0000000000,63.0000000000
1717675260687,255.0000000000,48.0000000000,33.0000000000,96.0000000000,199.0000000000,63.0000000000
1717675260687,254.0000000000,47.0000000000,32.0000000000,95.0000000000,199.0000000000,63.0000000000
1717675260687,252.0000000000,47.0000000000,32.0000000000,94.0000000000,198.0000000000,63.0000000000
1717675260688,251.0000000000,47.0000000000,32.0000000000,94.0000000000,196.0000000000,62.0000000000
1717675260707,248.0000000000,46.0000000000,32.0000000000,93.0000000000,195.0000000000,62.0000000000
1717675260708,248.0000000000,46.0000000000,31.0000000000,92.0000000000,194.0000000000,62.0000000000
1717675260708,246.0000000000,46.0000000000,31.0000000000,92.0000000000,193.0000000000,62.0000000000
1717675260708,243.0000000000,46.0000000000,31.0000000000,92.0000000000,192.0000000000,61.0000000000
1717675260708,243.0000000000,45.0000000000,31.0000000000,91.0000000000,191.0000000000,60.0000000000
1717675260708,241.0000000000,45.0000000000,31.0000000000,91.0000000000,190.0000000000,60.0000000000
1717675260708,239.0000000000,45.0000000000,31.0000000000,90.0000000000,188.0000000000,60.0000000000
1717675260708,238.0000000000,44.0000000000,31.0000000000,89.0000000000,187.0000000000,60.0000000000
1717675260708,236.0000000000,44.0000000000,31.0000000000,89.0000000000,187.0000000000,59.0000000000
1717675260709,235.0000000000,44.0000000000,30.0000000000,88.0000000000,185.0000000000,63.0000000000
1717675260709,233.0000000000,44.0000000000,30.0000000000,88.0000000000,184.0000000000,63.0000000000
1717675260723,231.0000000000,43.0000000000,30.0000000000,88.0000000000,184.0000000000,63.0000000000
1717675260724,231.0000000000,44.0000000000,30.0000000000,87.0000000000,182.0000000000,63.0000000000
1717675260724,229.0000000000,43.0000000000,30.0000000000,87.0000000000,181.0000000000,62.0000000000
1717675260724,227.0000000000,43.0000000000,29.0000000000,86.0000000000,180.0000000000,62.0000000000
1717675260725,227.0000000000,43.0000000000,29.0000000000,86.0000000000,179.0000000000,61.0000000000
1717675260725,225.0000000000,42.0000000000,29.0000000000,85.0000000000,178.0000000000,61.0000000000
1717675260725,224.0000000000,42.0000000000,28.0000000000,84.0000000000,177.0000000000,60.0000000000
1717675260725,223.0000000000,41.0000000000,28.0000000000,83.0000000000,176.0000000000,60.0000000000
1717675260726,221.0000000000,41.0000000000,28.0000000000,83.0000000000,175.0000000000,60.0000000000
1717675260726,220.0000000000,41.0000000000,28.0000000000,83.0000000000,174.0000000000,59.0000000000
1717675260744,219.0000000000,41.0000000000,28.0000000000,83.0000000000,173.0000000000,59.0000000000
1717675260745,217.0000000000,41.0000000000,28.0000000000,82.0000000000,172.0000000000,59.0000000000
1717675260745,216.0000000000,40.0000000000,28.0000000000,81.0000000000,171.0000000000,59.0000000000
1717675260745,215.0000000000,40.0000000000,28.0000000000,81.0000000000,170.0000000000,57.0000000000
1717675260746,213.0000000000,39.0000000000,27.0000000000,81.0000000000,169.0000000000,57.0000000000
1717675260746,243.0000000000,39.0000000000,28.0000000000,80.0000000000,167.0000000000,57.0000000000
1717675260746,241.0000000000,39.0000000000,27.0000000000,79.0000000000,211.0000000000,57.0000000000
1717675260746,255.0000000000,39.0000000000,27.0000000000,124.0000000000,209.0000000000,56.0000000000
1717675260746,255.0000000000,39.0000000000,27.0000000000,122.0000000000,207.0000000000,56.0000000000
1717675260747,252.0000000000,39.0000000000,27.0000000000,121.0000000000,206.0000000000,56.0000000000
1717675260747,251.0000000000,39.0000000000,26.0000000000,120.0000000000,205.0000000000,56.0000000000
1717675260775,248.0000000000,39.0000000000,26.0000000000,120.0000000000,204.0000000000,55.0000000000
1717675260776,247.0000000000,39.0000000000,26.0000000000,119.0000000000,202.0000000000,55.0000000000
1717675260776,245.0000000000,41.0000000000,26.0000000000,118.0000000000,201.0000000000,55.0000000000
1717675260776,243.0000000000,79.0000000000,25.0000000000,116.0000000000,199.0000000000,55.0000000000
1717675260776,342.0000000000,174.0000000000,25.0000000000,116.0000000000,198.0000000000,54.0000000000
1717675260776,335.0000000000,172.0000000000,25.0000000000,115.0000000000,197.0000000000,54.0000000000
1717675260776,333.0000000000,169.0000000000,25.0000000000,114.0000000000,195.0000000000,53.0000000000
1717675260776,329.0000000000,167.0000000000,25.0000000000,113.0000000000,194.0000000000,53.0000000000
1717675260776,327.0000000000,167.0000000000,25.0000000000,112.0000000000,193.0000000000,52.0000000000
1717675260776,324.0000000000,166.0000000000,25.0000000000,112.0000000000,192.0000000000,51.0000000000
1717675260777,321.0000000000,164.0000000000,25.0000000000,112.0000000000,190.0000000000,52.0000000000
1717675260777,319.0000000000,163.0000000000,24.0000000000,111.0000000000,189.0000000000,51.0000000000
1717675260777,316.0000000000,162.0000000000,25.0000000000,110.0000000000,188.0000000000,51.0000000000
1717675260777,314.0000000000,161.0000000000,24.0000000000,109.0000000000,187.0000000000,51.0000000000
1717675260777,312.0000000000,159.0000000000,24.0000000000,108.0000000000,185.0000000000,51.0000000000
1717675260777,310.0000000000,159.0000000000,24.0000000000,108.0000000000,184.0000000000,50.0000000000
1717675260777,307.0000000000,157.0000000000,24.0000000000,107.0000000000,184.0000000000,49.0000000000
1717675260821,305.0000000000,156.0000000000,24.0000000000,106.0000000000,182.0000000000,49.0000000000
1717675260822,303.0000000000,155.0000000000,28.0000000000,105.0000000000,180.0000000000,49.0000000000
1717675260822,300.0000000000,155.0000000000,28.0000000000,104.0000000000,179.0000000000,49.0000000000
1717675260822,298.0000000000,153.0000000000,28.0000000000,103.0000000000,178.0000000000,48.0000000000
1717675260823,295.0000000000,152.0000000000,28.0000000000,103.0000000000,177.0000000000,49.0000000000
1717675260823,294.0000000000,151.0000000000,28.0000000000,103.0000000000,176.0000000000,48.0000000000
1717675260823,291.0000000000,150.0000000000,28.0000000000,102.0000000000,175.0000000000,48.0000000000
1717675260823,289.0000000000,149.0000000000,28.0000000000,101.0000000000,174.0000000000,48.0000000000
1717675260823,287.0000000000,148.0000000000,27.0000000000,100.0000000000,173.0000000000,47.0000000000
1717675260823,286.0000000000,147.0000000000,27.0000000000,99.0000000000,172.0000000000,47.0000000000
1717675260823,284.0000000000,147.0000000000,27.0000000000,99.0000000000,171.0000000000,47.0000000000
1717675260823,281.0000000000,145.0000000000,27.0000000000,99.0000000000,169.0000000000,46.0000000000
1717675260823,280.0000000000,144.0000000000,27.0000000000,98.0000000000,168.0000000000,46.0000000000
1717675260823,278.0000000000,143.0000000000,27.0000000000,97.0000000000,167.0000000000,46.0000000000
1717675260824,276.0000000000,143.0000000000,26.0000000000,97.0000000000,167.0000000000,46.0000000000
1717675260824,274.0000000000,142.0000000000,25.0000000000,96.0000000000,166.0000000000,46.0000000000
1717675260824,272.0000000000,141.0000000000,25.0000000000,96.0000000000,165.0000000000,45.0000000000
1717675260824,271.0000000000,140.0000000000,25.0000000000,95.0000000000,163.0000000000,45.0000000000
1717675260824,269.0000000000,139.0000000000,25.0000000000,95.0000000000,163.0000000000,44.0000000000
1717675260824,267.0000000000,139.0000000000,25.0000000000,94.0000000000,162.0000000000,44.0000000000
1717675260824,265.0000000000,137.0000000000,25.0000000000,93.0000000000,161.0000000000,44.0000000000
1717675260824,263.0000000000,135.0000000000,25.0000000000,92.0000000000,159.0000000000,44.0000000000
1717675260824,262.0000000000,135.0000000000,25.0000000000,92.0000000000,159.0000000000,43.0000000000
1717675260847,260.0000000000,135.0000000000,25.0000000000,92.0000000000,159.0000000000,44.0000000000
1717675260848,259.0000000000,134.0000000000,25.0000000000,91.0000000000,158.0000000000,43.0000000000
1717675260848,257.0000000000,133.0000000000,25.0000000000,91.0000000000,158.0000000000,43.0000000000
1717675260849,255.0000000000,132.0000000000,24.0000000000,89.0000000000,157.0000000000,43.0000000000
1717675260849,254.0000000000,131.0000000000,25.0000000000,89.0000000000,156.0000000000,42.0000000000
1717675260850,252.0000000000,131.0000000000,24.0000000000,88.0000000000,156.0000000000,41.0000000000
1717675260850,251.0000000000,131.0000000000,24.0000000000,88.0000000000,155.0000000000,41.0000000000
1717675260851,249.0000000000,129.0000000000,24.0000000000,88.0000000000,153.0000000000,41.0000000000
1717675260851,248.0000000000,129.0000000000,24.0000000000,87.0000000000,153.0000000000,41.0000000000
1717675260852,246.0000000000,127.0000000000,24.0000000000,87.0000000000,152.0000000000,41.0000000000
1717675260852,244.0000000000,127.0000000000,24.0000000000,86.0000000000,152.0000000000,41.0000000000
1717675260852,246.0000000000,127.0000000000,24.0000000000,86.0000000000,150.0000000000,40.0000000000
1717675260853,244.0000000000,126.0000000000,24.0000000000,85.0000000000,149.0000000000,39.0000000000
1717675260853,243.0000000000,125.0000000000,24.0000000000,84.0000000000,148.0000000000,39.0000000000
1717675260853,241.0000000000,124.0000000000,23.0000000000,84.0000000000,147.0000000000,39.0000000000
1717675260853,240.0000000000,124.0000000000,24.0000000000,83.0000000000,147.0000000000,39.0000000000
1717675260870,238.0000000000,123.0000000000,23.0000000000,83.0000000000,146.0000000000,39.0000000000
1717675260871,237.0000000000,123.0000000000,23.0000000000,82.0000000000,145.0000000000,39.0000000000
1717675260871,236.0000000000,121.0000000000,23.0000000000,82.0000000000,144.0000000000,39.0000000000
1717675260871,233.0000000000,120.0000000000,23.0000000000,81.0000000000,143.0000000000,39.0000000000
1717675260871,231.0000000000,120.0000000000,23.0000000000,81.0000000000,143.0000000000,39.0000000000
1717675260871,231.0000000000,120.0000000000,23.0000000000,80.0000000000,142.0000000000,38.0000000000
1717675260871,230.0000000000,119.0000000000,23.0000000000,79.0000000000,141.0000000000,38.0000000000
1717675260871,227.0000000000,118.0000000000,23.0000000000,79.0000000000,140.0000000000,38.0000000000
1717675260871,227.0000000000,118.0000000000,22.0000000000,79.0000000000,140.0000000000,38.0000000000
1717675260872,225.0000000000,116.0000000000,22.0000000000,79.0000000000,139.0000000000,37.0000000000
1717675260872,224.0000000000,116.0000000000,22.0000000000,78.0000000000,139.0000000000,36.0000000000
1717675260886,223.0000000000,115.0000000000,22.0000000000,78.0000000000,137.0000000000,36.0000000000
1717675260886,222.0000000000,115.0000000000,22.0000000000,78.0000000000,214.0000000000,36.0000000000
1717675260886,220.0000000000,113.0000000000,21.0000000000,77.0000000000,219.0000000000,36.0000000000
1717675260886,219.0000000000,113.0000000000,22.0000000000,76.0000000000,217.0000000000,36.0000000000
1717675260886,217.0000000000,113.0000000000,21.0000000000,76.0000000000,216.0000000000,36.0000000000
1717675260887,216.0000000000,112.0000000000,21.0000000000,76.0000000000,214.0000000000,36.0000000000
1717675260903,215.0000000000,111.0000000000,21.0000000000,75.0000000000,212.0000000000,36.0000000000
1717675260904,214.0000000000,111.0000000000,20.0000000000,75.0000000000,211.0000000000,35.0000000000
1717675260904,212.0000000000,110.0000000000,20.0000000000,75.0000000000,209.0000000000,35.0000000000
1717675260904,211.0000000000,110.0000000000,20.0000000000,73.0000000000,207.0000000000,35.0000000000
1717675260905,210.0000000000,108.0000000000,20.0000000000,73.0000000000,207.0000000000,35.0000000000
1717675260905,209.0000000000,108.0000000000,20.0000000000,72.0000000000,205.0000000000,35.0000000000
1717675260905,207.0000000000,108.0000000000,20.0000000000,71.0000000000,273.0000000000,35.0000000000
1717675260905,206.0000000000,107.0000000000,56.0000000000,83.0000000000,292.0000000000,36.0000000000
1717675260905,205.0000000000,106.0000000000,63.0000000000,83.0000000000,290.0000000000,35.0000000000
1717675260905,204.0000000000,105.0000000000,63.0000000000,81.0000000000,287.0000000000,35.0000000000
1717675260906,203.0000000000,105.0000000000,63.0000000000,81.0000000000,285.0000000000,35.0000000000
1717675260921,201.0000000000,104.0000000000,63.0000000000,81.0000000000,283.0000000000,35.0000000000
1717675260922,200.0000000000,103.0000000000,62.0000000000,80.0000000000,281.0000000000,35.0000000000
1717675260922,199.0000000000,103.0000000000,62.0000000000,79.0000000000,280.0000000000,35.0000000000
1717675260922,199.0000000000,103.0000000000,61.0000000000,79.0000000000,277.0000000000,34.0000000000
1717675260922,197.0000000000,102.0000000000,60.0000000000,79.0000000000,275.0000000000,34.0000000000
1717675260922,196.0000000000,102.0000000000,60.0000000000,78.0000000000,273.0000000000,34.0000000000
1717675260922,195.0000000000,101.0000000000,60.0000000000,78.0000000000,271.0000000000,33.0000000000
1717675260922,194.0000000000,100.0000000000,60.0000000000,77.0000000000,270.0000000000,33.0000000000
1717675260922,192.0000000000,100.0000000000,59.0000000000,76.0000000000,268.0000000000,33.0000000000
1717675260936,192.0000000000,99.0000000000,59.0000000000,76.0000000000,267.0000000000,33.0000000000
1717675260937,191.0000000000,99.0000000000,58.0000000000,76.0000000000,263.0000000000,33.0000000000
1717675260937,190.0000000000,98.0000000000,58.0000000000,76.0000000000,263.0000000000,32.0000000000
1717675260937,188.0000000000,98.0000000000,57.0000000000,75.0000000000,261.0000000000,32.0000000000
1717675260937,188.0000000000,97.0000000000,57.0000000000,75.0000000000,259.0000000000,31.0000000000
1717675260937,187.0000000000,97.0000000000,56.0000000000,74.0000000000,258.0000000000,31.0000000000
1717675260937,186.0000000000,133.0000000000,56.0000000000,73.0000000000,255.0000000000,31.0000000000
1717675260937,184.0000000000,132.0000000000,56.0000000000,73.0000000000,255.0000000000,31.0000000000
1717675260937,184.0000000000,131.0000000000,56.0000000000,71.0000000000,253.0000000000,31.0000000000
1717675260952,183.0000000000,129.0000000000,56.0000000000,71.0000000000,252.0000000000,31.0000000000
1717675260954,182.0000000000,129.0000000000,55.0000000000,71.0000000000,249.0000000000,31.0000000000
1717675260954,181.0000000000,127.0000000000,55.0000000000,71.0000000000,248.0000000000,31.0000000000
1717675260954,179.0000000000,127.0000000000,55.0000000000,71.0000000000,247.0000000000,31.0000000000
1717675260954,179.0000000000,126.0000000000,54.0000000000,71.0000000000,245.0000000000,31.0000000000
1717675260954,178.0000000000,126.0000000000,54.0000000000,71.0000000000,243.0000000000,30.0000000000
1717675260955,176.0000000000,124.0000000000,53.0000000000,70.0000000000,241.0000000000,30.0000000000
1717675260955,176.0000000000,124.0000000000,53.0000000000,70.0000000000,240.0000000000,30.0000000000
1717675260955,175.0000000000,123.0000000000,52.0000000000,69.0000000000,240.0000000000,30.0000000000
1717675260971,174.0000000000,123.0000000000,52.0000000000,68.0000000000,238.0000000000,30.0000000000
1717675260971,173.0000000000,121.0000000000,51.0000000000,67.0000000000,236.0000000000,30.0000000000
1717675260971,172.0000000000,121.0000000000,51.0000000000,67.0000000000,235.0000000000,29.0000000000
1717675260971,171.0000000000,120.0000000000,51.0000000000,67.0000000000,233.0000000000,29.0000000000
1717675260972,170.0000000000,120.0000000000,51.0000000000,67.0000000000,231.0000000000,29.0000000000
1717675260972,169.0000000000,118.0000000000,51.0000000000,67.0000000000,230.0000000000,29.0000000000
1717675260972,167.0000000000,118.0000000000,51.0000000000,67.0000000000,229.0000000000,29.0000000000
1717675260972,167.0000000000,117.0000000000,49.0000000000,66.0000000000,227.0000000000,29.0000000000
1717675260972,166.0000000000,115.0000000000,49.0000000000,65.0000000000,227.0000000000,28.0000000000
1717675260987,166.0000000000,115.0000000000,50.0000000000,65.0000000000,225.0000000000,28.0000000000
1717675260988,164.0000000000,115.0000000000,48.0000000000,65.0000000000,224.0000000000,28.0000000000
1717675260988,163.0000000000,114.0000000000,49.0000000000,64.0000000000,223.0000000000,29.0000000000
1717675260988,163.0000000000,113.0000000000,48.0000000000,63.0000000000,278.0000000000,60.0000000000
1717675260988,162.0000000000,113.0000000000,48.0000000000,63.0000000000,364.0000000000,59.0000000000
1717675260988,161.0000000000,112.0000000000,48.0000000000,63.0000000000,359.0000000000,58.0000000000
1717675260988,160.0000000000,111.0000000000,48.0000000000,63.0000000000,357.0000000000,57.0000000000
1717675260988,159.0000000000,111.0000000000,48.0000000000,63.0000000000,354.0000000000,57.0000000000
1717675261002,158.0000000000,110.0000000000,47.0000000000,62.0000000000,351.0000000000,57.0000000000
1717675261003,157.0000000000,109.0000000000,47.0000000000,62.0000000000,348.0000000000,56.0000000000
1717675261003,156.0000000000,108.0000000000,46.0000000000,83.0000000000,346.0000000000,56.0000000000
1717675261003,156.0000000000,108.0000000000,46.0000000000,83.0000000000,344.0000000000,56.0000000000
1717675261004,155.0000000000,108.0000000000,46.0000000000,82.0000000000,340.0000000000,56.0000000000
1717675261004,154.0000000000,107.0000000000,46.0000000000,82.0000000000,338.0000000000,55.0000000000
1717675261004,153.0000000000,106.0000000000,45.0000000000,81.0000000000,335.0000000000,55.0000000000
1717675261004,152.0000000000,105.0000000000,81.0000000000,81.0000000000,334.0000000000,54.0000000000
1717675261004,152.0000000000,103.0000000000,105.0000000000,79.0000000000,331.0000000000,54.0000000000
1717675261018,151.0000000000,103.0000000000,104.0000000000,79.0000000000,327.0000000000,54.0000000000
1717675261018,196.0000000000,103.0000000000,103.0000000000,79.0000000000,327.0000000000,53.0000000000
1717675261018,312.0000000000,103.0000000000,103.0000000000,78.0000000000,323.0000000000,52.0000000000
1717675261018,308.0000000000,102.0000000000,102.0000000000,78.0000000000,321.0000000000,52.0000000000
1717675261018,305.0000000000,102.0000000000,101.0000000000,77.0000000000,319.0000000000,51.0000000000
1717675261019,303.0000000000,100.0000000000,99.0000000000,77.0000000000,317.0000000000,51.0000000000
1717675261019,300.0000000000,100.0000000000,99.0000000000,76.0000000000,315.0000000000,51.0000000000
1717675261019,298.0000000000,99.0000000000,99.0000000000,75.0000000000,312.0000000000,51.0000000000
1717675261020,295.0000000000,109.0000000000,98.0000000000,76.0000000000,311.0000000000,51.0000000000
1717675261041,294.0000000000,143.0000000000,97.0000000000,75.0000000000,309.0000000000,50.0000000000
1717675261042,291.0000000000,143.0000000000,97.0000000000,74.0000000000,307.0000000000,50.0000000000
1717675261042,289.0000000000,142.0000000000,96.0000000000,73.0000000000,304.0000000000,49.0000000000
1717675261042,287.0000000000,161.0000000000,96.0000000000,73.0000000000,302.0000000000,49.0000000000
1717675261043,285.0000000000,167.0000000000,95.0000000000,72.0000000000,300.0000000000,49.0000000000
1717675261043,283.0000000000,166.0000000000,95.0000000000,71.0000000000,299.0000000000,48.0000000000
1717675261043,281.0000000000,164.0000000000,94.0000000000,71.0000000000,296.0000000000,48.0000000000
1717675261043,280.0000000000,163.0000000000,93.0000000000,71.0000000000,295.0000000000,48.0000000000
1717675261044,277.0000000000,161.0000000000,92.0000000000,71.0000000000,293.0000000000,48.0000000000
1717675261044,275.0000000000,160.0000000000,92.0000000000,71.0000000000,291.0000000000,47.0000000000
1717675261044,273.0000000000,159.0000000000,92.0000000000,70.0000000000,289.0000000000,47.0000000000
1717675261045,271.0000000000,158.0000000000,91.0000000000,70.0000000000,287.0000000000,49.0000000000
1717675261045,270.0000000000,157.0000000000,91.0000000000,69.0000000000,286.0000000000,81.0000000000
1717675261069,268.0000000000,156.0000000000,89.0000000000,68.0000000000,284.0000000000,79.0000000000
1717675261069,265.0000000000,156.0000000000,89.0000000000,68.0000000000,283.0000000000,79.0000000000
1717675261069,263.0000000000,153.0000000000,89.0000000000,67.0000000000,280.0000000000,79.0000000000
1717675261069,263.0000000000,153.0000000000,88.0000000000,93.0000000000,279.0000000000,78.0000000000
1717675261070,260.0000000000,152.0000000000,88.0000000000,92.0000000000,277.0000000000,78.0000000000
1717675261070,259.0000000000,152.0000000000,87.0000000000,92.0000000000,275.0000000000,77.0000000000
1717675261070,257.0000000000,151.0000000000,87.0000000000,91.0000000000,273.0000000000,76.0000000000
1717675261070,255.0000000000,149.0000000000,86.0000000000,90.0000000000,271.0000000000,76.0000000000
1717675261070,254.0000000000,148.0000000000,86.0000000000,89.0000000000,270.0000000000,76.0000000000
1717675261070,252.0000000000,147.0000000000,85.0000000000,88.0000000000,268.0000000000,75.0000000000
1717675261070,251.0000000000,147.0000000000,84.0000000000,88.0000000000,267.0000000000,75.0000000000
1717675261070,249.0000000000,145.0000000000,83.0000000000,88.0000000000,265.0000000000,74.0000000000
1717675261070,248.0000000000,144.0000000000,83.0000000000,88.0000000000,263.0000000000,73.0000000000
1717675261083,246.0000000000,143.0000000000,83.0000000000,86.0000000000,262.0000000000,73.0000000000
1717675261085,244.0000000000,143.0000000000,83.0000000000,86.0000000000,260.0000000000,72.0000000000
1717675261085,243.0000000000,142.0000000000,82.0000000000,85.0000000000,259.0000000000,71.0000000000
1717675261085,241.0000000000,141.0000000000,81.0000000000,84.0000000000,257.0000000000,71.0000000000
1717675261085,240.0000000000,140.0000000000,81.0000000000,84.0000000000,255.0000000000,71.0000000000
1717675261085,238.0000000000,139.0000000000,81.0000000000,83.0000000000,254.0000000000,71.0000000000
1717675261085,237.0000000000,139.0000000000,80.0000000000,83.0000000000,252.0000000000,70.0000000000
1717675261085,235.0000000000,137.0000000000,79.0000000000,82.0000000000,252.0000000000,70.0000000000
1717675261085,233.0000000000,137.0000000000,79.0000000000,82.0000000000,249.0000000000,69.0000000000
1717675261105,231.0000000000,135.0000000000,79.0000000000,81.0000000000,248.0000000000,68.0000000000
1717675261106,231.0000000000,135.0000000000,78.0000000000,81.0000000000,247.0000000000,68.0000000000
1717675261106,230.0000000000,135.0000000000,78.0000000000,80.0000000000,246.0000000000,68.0000000000
1717675261106,227.0000000000,134.0000000000,78.0000000000,79.0000000000,244.0000000000,67.0000000000
1717675261106,227.0000000000,179.0000000000,77.0000000000,79.0000000000,243.0000000000,67.0000000000
1717675261106,225.0000000000,177.0000000000,76.0000000000,79.0000000000,241.0000000000,67.0000000000
1717675261106,224.0000000000,176.0000000000,76.0000000000,78.0000000000,240.0000000000,66.0000000000
1717675261106,223.0000000000,174.0000000000,76.0000000000,78.0000000000,239.0000000000,66.0000000000
1717675261106,221.0000000000,173.0000000000,75.0000000000,77.0000000000,237.0000000000,65.0000000000
1717675261106,220.0000000000,172.0000000000,75.0000000000,76.0000000000,236.0000000000,65.0000000000
1717675261107,219.0000000000,171.0000000000,75.0000000000,76.0000000000,234.0000000000,65.0000000000
1717675261138,217.0000000000,169.0000000000,73.0000000000,76.0000000000,233.0000000000,63.0000000000
1717675261139,216.0000000000,167.0000000000,73.0000000000,76.0000000000,231.0000000000,63.0000000000
1717675261139,215.0000000000,167.0000000000,73.0000000000,75.0000000000,231.0000000000,63.0000000000
1717675261139,213.0000000000,166.0000000000,72.0000000000,74.0000000000,229.0000000000,63.0000000000
1717675261139,212.0000000000,165.0000000000,71.0000000000,73.0000000000,227.0000000000,63.0000000000
1717675261140,211.0000000000,166.0000000000,93.0000000000,98.0000000000,227.0000000000,62.0000000000
1717675261140,209.0000000000,252.0000000000,119.0000000000,115.0000000000,225.0000000000,62.0000000000
1717675261140,207.0000000000,249.0000000000,117.0000000000,113.0000000000,224.0000000000,62.0000000000
1717675261140,207.0000000000,248.0000000000,115.0000000000,113.0000000000,223.0000000000,61.0000000000
1717675261140,206.0000000000,244.0000000000,115.0000000000,112.0000000000,220.0000000000,60.0000000000
1717675261140,204.0000000000,243.0000000000,114.0000000000,111.0000000000,220.0000000000,60.0000000000
1717675261140,203.0000000000,241.0000000000,113.0000000000,110.0000000000,218.0000000000,60.0000000000
1717675261140,201.0000000000,239.0000000000,112.0000000000,109.0000000000,216.0000000000,59.0000000000
1717675261140,199.0000000000,237.0000000000,112.0000000000,108.0000000000,216.0000000000,59.0000000000
1717675261140,199.0000000000,236.0000000000,111.0000000000,108.0000000000,215.0000000000,59.0000000000
1717675261141,198.0000000000,233.0000000000,110.0000000000,107.0000000000,213.0000000000,58.0000000000
1717675261156,196.0000000000,231.0000000000,110.0000000000,106.0000000000,211.0000000000,58.0000000000
1717675261157,195.0000000000,230.0000000000,109.0000000000,105.0000000000,211.0000000000,57.0000000000
1717675261157,193.0000000000,228.0000000000,108.0000000000,104.0000000000,209.0000000000,57.0000000000
1717675261158,192.0000000000,227.0000000000,107.0000000000,103.0000000000,207.0000000000,56.0000000000
1717675261158,192.0000000000,225.0000000000,106.0000000000,103.0000000000,207.0000000000,56.0000000000
1717675261158,191.0000000000,224.0000000000,105.0000000000,103.0000000000,206.0000000000,56.0000000000
1717675261158,189.0000000000,222.0000000000,105.0000000000,102.0000000000,204.0000000000,56.0000000000
1717675261158,188.0000000000,220.0000000000,103.0000000000,100.0000000000,203.0000000000,56.0000000000
1717675261158,187.0000000000,219.0000000000,103.0000000000,100.0000000000,201.0000000000,55.0000000000
1717675261158,185.0000000000,217.0000000000,103.0000000000,137.0000000000,200.0000000000,54.0000000000
1717675261172,184.0000000000,216.0000000000,103.0000000000,135.0000000000,199.0000000000,54.0000000000
1717675261173,184.0000000000,215.0000000000,102.0000000000,134.0000000000,199.0000000000,54.0000000000
1717675261173,182.0000000000,212.0000000000,100.0000000000,133.0000000000,197.0000000000,54.0000000000
1717675261173,181.0000000000,211.0000000000,100.0000000000,131.0000000000,195.0000000000,53.0000000000
1717675261174,179.0000000000,210.0000000000,99.0000000000,131.0000000000,195.0000000000,52.0000000000
1717675261174,179.0000000000,208.0000000000,99.0000000000,130.0000000000,193.0000000000,52.0000000000
1717675261189,177.0000000000,207.0000000000,98.0000000000,129.0000000000,193.0000000000,51.0000000000
1717675261190,177.0000000000,206.0000000000,97.0000000000,127.0000000000,192.0000000000,51.0000000000
1717675261190,176.0000000000,204.0000000000,97.0000000000,127.0000000000,191.0000000000,51.0000000000
1717675261190,175.0000000000,204.0000000000,96.0000000000,126.0000000000,190.0000000000,51.0000000000
1717675261190,174.0000000000,202.0000000000,96.0000000000,126.0000000000,189.0000000000,51.0000000000
1717675261190,172.0000000000,199.0000000000,96.0000000000,124.0000000000,188.0000000000,50.0000000000
1717675261190,172.0000000000,199.0000000000,95.0000000000,124.0000000000,186.0000000000,50.0000000000
1717675261191,171.0000000000,198.0000000000,94.0000000000,123.0000000000,185.0000000000,50.0000000000
1717675261191,169.0000000000,196.0000000000,94.0000000000,122.0000000000,184.0000000000,49.0000000000
1717675261205,167.0000000000,195.0000000000,93.0000000000,121.0000000000,184.0000000000,49.0000000000
1717675261205,167.0000000000,195.0000000000,92.0000000000,120.0000000000,182.0000000000,49.0000000000
1717675261206,167.0000000000,193.0000000000,92.0000000000,120.0000000000,181.0000000000,48.0000000000
1717675261206,166.0000000000,192.0000000000,91.0000000000,119.0000000000,179.0000000000,48.0000000000
1717675261206,164.0000000000,191.0000000000,95.0000000000,163.0000000000,179.0000000000,48.0000000000
1717675261206,163.0000000000,190.0000000000,103.0000000000,162.0000000000,178.0000000000,48.0000000000
1717675261206,163.0000000000,188.0000000000,102.0000000000,160.0000000000,177.0000000000,47.0000000000
1717675261206,162.0000000000,188.0000000000,102.0000000000,159.0000000000,176.0000000000,47.0000000000
1717675261220,161.0000000000,186.0000000000,101.0000000000,158.0000000000,175.0000000000,47.0000000000
1717675261221,159.0000000000,184.0000000000,100.0000000000,156.0000000000,174.0000000000,46.0000000000
1717675261221,159.0000000000,184.0000000000,99.0000000000,156.0000000000,173.0000000000,46.0000000000
1717675261221,158.0000000000,183.0000000000,99.0000000000,155.0000000000,172.0000000000,46.0000000000
1717675261221,157.0000000000,182.0000000000,98.0000000000,153.0000000000,171.0000000000,46.0000000000
1717675261221,156.0000000000,180.0000000000,97.0000000000,152.0000000000,171.0000000000,45.0000000000
1717675261221,164.0000000000,305.0000000000,97.0000000000,152.0000000000,169.0000000000,45.0000000000
1717675261221,163.0000000000,319.0000000000,96.0000000000,150.0000000000,167.0000000000,44.0000000000
1717675261234,161.0000000000,316.0000000000,96.0000000000,149.0000000000,167.0000000000,44.0000000000
1717675261235,159.0000000000,313.0000000000,95.0000000000,147.0000000000,167.0000000000,44.0000000000
1717675261235,159.0000000000,311.0000000000,95.0000000000,147.0000000000,166.0000000000,44.0000000000
1717675261235,158.0000000000,308.0000000000,94.0000000000,146.0000000000,164.0000000000,44.0000000000
1717675261235,156.0000000000,305.0000000000,93.0000000000,145.0000000000,163.0000000000,43.0000000000
1717675261235,156.0000000000,303.0000000000,92.0000000000,143.0000000000,163.0000000000,43.0000000000
1717675261250,155.0000000000,301.0000000000,92.0000000000,143.0000000000,162.0000000000,43.0000000000
1717675261251,153.0000000000,299.0000000000,92.0000000000,142.0000000000,161.0000000000,42.0000000000
1717675261251,153.0000000000,295.0000000000,91.0000000000,141.0000000000,159.0000000000,42.0000000000
1717675261251,152.0000000000,294.0000000000,90.0000000000,140.0000000000,159.0000000000,41.0000000000
1717675261252,152.0000000000,292.0000000000,89.0000000000,140.0000000000,166.0000000000,41.0000000000
1717675261252,150.0000000000,291.0000000000,89.0000000000,138.0000000000,164.0000000000,41.0000000000
1717675261252,150.0000000000,287.0000000000,88.0000000000,137.0000000000,163.0000000000,43.0000000000
1717675261252,148.0000000000,286.0000000000,88.0000000000,136.0000000000,162.0000000000,74.0000000000
1717675261252,147.0000000000,284.0000000000,88.0000000000,135.0000000000,161.0000000000,73.0000000000
1717675261252,147.0000000000,282.0000000000,87.0000000000,135.0000000000,159.0000000000,71.0000000000
1717675261252,146.0000000000,280.0000000000,87.0000000000,134.0000000000,159.0000000000,71.0000000000
1717675261266,145.0000000000,278.0000000000,86.0000000000,133.0000000000,158.0000000000,71.0000000000
1717675261267,144.0000000000,275.0000000000,86.0000000000,132.0000000000,157.0000000000,71.0000000000
1717675261268,143.0000000000,274.0000000000,85.0000000000,131.0000000000,167.0000000000,71.0000000000
1717675261268,143.0000000000,272.0000000000,84.0000000000,130.0000000000,166.0000000000,90.0000000000
1717675261268,142.0000000000,270.0000000000,83.0000000000,129.0000000000,164.0000000000,89.0000000000
1717675261268,141.0000000000,268.0000000000,83.0000000000,129.0000000000,163.0000000000,88.0000000000
1717675261281,140.0000000000,267.0000000000,83.0000000000,127.0000000000,162.0000000000,88.0000000000
1717675261282,140.0000000000,263.0000000000,83.0000000000,127.0000000000,161.0000000000,87.0000000000
1717675261282,139.0000000000,263.0000000000,82.0000000000,126.0000000000,159.0000000000,87.0000000000
1717675261282,139.0000000000,262.0000000000,81.0000000000,126.0000000000,159.0000000000,86.0000000000
1717675261282,137.0000000000,260.0000000000,81.0000000000,125.0000000000,158.0000000000,85.0000000000
1717675261283,135.0000000000,258.0000000000,79.0000000000,124.0000000000,156.0000000000,84.0000000000
1717675261283,158.0000000000,255.0000000000,79.0000000000,123.0000000000,156.0000000000,84.0000000000
1717675261283,156.0000000000,255.0000000000,79.0000000000,122.0000000000,155.0000000000,83.0000000000
1717675261283,167.0000000000,253.0000000000,79.0000000000,121.0000000000,154.0000000000,83.0000000000
1717675261301,164.0000000000,252.0000000000,79.0000000000,120.0000000000,153.0000000000,82.0000000000
1717675261302,163.0000000000,249.0000000000,78.0000000000,120.0000000000,152.0000000000,82.0000000000
1717675261302,224.0000000000,248.0000000000,78.0000000000,120.0000000000,152.0000000000,81.0000000000
1717675261302,222.0000000000,247.0000000000,77.0000000000,119.0000000000,151.0000000000,81.0000000000
1717675261303,220.0000000000,244.0000000000,76.0000000000,119.0000000000,150.0000000000,79.0000000000
1717675261303,217.0000000000,243.0000000000,76.0000000000,118.0000000000,149.0000000000,79.0000000000
1717675261303,216.0000000000,241.0000000000,76.0000000000,116.0000000000,148.0000000000,79.0000000000
1717675261303,215.0000000000,240.0000000000,75.0000000000,115.0000000000,147.0000000000,79.0000000000
1717675261304,212.0000000000,239.0000000000,75.0000000000,115.0000000000,147.0000000000,78.0000000000
1717675261304,211.0000000000,237.0000000000,75.0000000000,115.0000000000,145.0000000000,78.0000000000
1717675261325,209.0000000000,236.0000000000,73.0000000000,113.0000000000,145.0000000000,77.0000000000
1717675261326,207.0000000000,234.0000000000,73.0000000000,113.0000000000,144.0000000000,76.0000000000
1717675261326,207.0000000000,232.0000000000,73.0000000000,112.0000000000,143.0000000000,76.0000000000
1717675261327,270.0000000000,231.0000000000,72.0000000000,112.0000000000,143.0000000000,76.0000000000
1717675261327,295.0000000000,230.0000000000,71.0000000000,111.0000000000,142.0000000000,75.0000000000
1717675261327,291.0000000000,228.0000000000,71.0000000000,110.0000000000,141.0000000000,75.0000000000
1717675261328,289.0000000000,227.0000000000,71.0000000000,110.0000000000,140.0000000000,74.0000000000
1717675261328,287.0000000000,225.0000000000,71.0000000000,108.0000000000,140.0000000000,73.0000000000
1717675261328,284.0000000000,224.0000000000,71.0000000000,108.0000000000,139.0000000000,73.0000000000
1717675261329,283.0000000000,223.0000000000,70.0000000000,108.0000000000,137.0000000000,72.0000000000
1717675261330,280.0000000000,221.0000000000,70.0000000000,107.0000000000,137.0000000000,71.0000000000
1717675261331,278.0000000000,220.0000000000,70.0000000000,106.0000000000,136.0000000000,71.0000000000
1717675261331,275.0000000000,219.0000000000,68.0000000000,105.0000000000,135.0000000000,71.0000000000
1717675261331,273.0000000000,217.0000000000,68.0000000000,159.0000000000,135.0000000000,71.0000000000
1717675261331,271.0000000000,216.0000000000,68.0000000000,158.0000000000,134.0000000000,70.0000000000
1717675261363,270.0000000000,215.0000000000,67.0000000000,157.0000000000,134.0000000000,70.0000000000
1717675261364,268.0000000000,214.0000000000,67.0000000000,156.0000000000,133.0000000000,70.0000000000
1717675261364,265.0000000000,212.0000000000,67.0000000000,155.0000000000,132.0000000000,68.0000000000
1717675261364,263.0000000000,211.0000000000,67.0000000000,153.0000000000,131.0000000000,68.0000000000
1717675261365,262.0000000000,209.0000000000,66.0000000000,152.0000000000,131.0000000000,68.0000000000
1717675261365,260.0000000000,208.0000000000,65.0000000000,151.0000000000,130.0000000000,67.0000000000
1717675261365,259.0000000000,207.0000000000,65.0000000000,150.0000000000,130.0000000000,67.0000000000
1717675261365,257.0000000000,206.0000000000,65.0000000000,150.0000000000,129.0000000000,67.0000000000
1717675261365,255.0000000000,204.0000000000,63.0000000000,148.0000000000,127.0000000000,66.0000000000
1717675261365,253.0000000000,203.0000000000,63.0000000000,147.0000000000,127.0000000000,66.0000000000
1717675261365,252.0000000000,203.0000000000,63.0000000000,146.0000000000,127.0000000000,66.0000000000
1717675261366,249.0000000000,201.0000000000,63.0000000000,145.0000000000,126.0000000000,65.0000000000
1717675261366,248.0000000000,199.0000000000,63.0000000000,143.0000000000,126.0000000000,65.0000000000
1717675261366,246.0000000000,199.0000000000,63.0000000000,143.0000000000,124.0000000000,64.0000000000
1717675261366,244.0000000000,198.0000000000,63.0000000000,142.0000000000,233.0000000000,65.0000000000
1717675261366,243.0000000000,196.0000000000,62.0000000000,141.0000000000,239.0000000000,63.0000000000
1717675261382,241.0000000000,195.0000000000,62.0000000000,140.0000000000,236.0000000000,63.0000000000
1717675261383,327.0000000000,194.0000000000,62.0000000000,139.0000000000,235.0000000000,63.0000000000
1717675261383,467.0000000000,193.0000000000,61.0000000000,138.0000000000,233.0000000000,63.0000000000
1717675261383,471.0000000000,192.0000000000,60.0000000000,137.0000000000,249.0000000000,63.0000000000
1717675261383,465.0000000000,191.0000000000,60.0000000000,135.0000000000,248.0000000000,62.0000000000
1717675261383,461.0000000000,189.0000000000,60.0000000000,135.0000000000,245.0000000000,62.0000000000
1717675261383,455.0000000000,197.0000000000,60.0000000000,135.0000000000,243.0000000000,61.0000000000
1717675261383,452.0000000000,195.0000000000,59.0000000000,134.0000000000,241.0000000000,61.0000000000
1717675261383,448.0000000000,195.0000000000,59.0000000000,132.0000000000,240.0000000000,60.0000000000
1717675261383,444.0000000000,193.0000000000,59.0000000000,131.0000000000,238.0000000000,60.0000000000
1717675261384,440.0000000000,203.0000000000,58.0000000000,131.0000000000,236.0000000000,60.0000000000
1717675261400,435.0000000000,200.0000000000,57.0000000000,130.0000000000,235.0000000000,59.0000000000
1717675261401,432.0000000000,199.0000000000,57.0000000000,129.0000000000,233.0000000000,59.0000000000
1717675261402,428.0000000000,198.0000000000,57.0000000000,127.0000000000,231.0000000000,59.0000000000
1717675261402,423.0000000000,196.0000000000,56.0000000000,127.0000000000,230.0000000000,59.0000000000
1717675261402,421.0000000000,195.0000000000,56.0000000000,127.0000000000,228.0000000000,57.0000000000
1717675261402,417.0000000000,193.0000000000,56.0000000000,126.0000000000,227.0000000000,57.0000000000
1717675261403,414.0000000000,192.0000000000,56.0000000000,125.0000000000,225.0000000000,57.0000000000
1717675261403,411.0000000000,191.0000000000,56.0000000000,124.0000000000,224.0000000000,56.0000000000
1717675261404,408.0000000000,190.0000000000,56.0000000000,124.0000000000,222.0000000000,56.0000000000
1717675261404,403.0000000000,188.0000000000,55.0000000000,123.0000000000,220.0000000000,56.0000000000
1717675261421,400.0000000000,188.0000000000,55.0000000000,121.0000000000,219.0000000000,56.0000000000
1717675261423,398.0000000000,186.0000000000,54.0000000000,121.0000000000,217.0000000000,56.0000000000
1717675261423,394.0000000000,185.0000000000,54.0000000000,120.0000000000,216.0000000000,55.0000000000
1717675261423,391.0000000000,184.0000000000,54.0000000000,120.0000000000,215.0000000000,55.0000000000
1717675261424,388.0000000000,184.0000000000,53.0000000000,120.0000000000,214.0000000000,54.0000000000
1717675261424,385.0000000000,182.0000000000,53.0000000000,118.0000000000,211.0000000000,54.0000000000
1717675261424,383.0000000000,181.0000000000,52.0000000000,118.0000000000,211.0000000000,54.0000000000
1717675261425,379.0000000000,179.0000000000,52.0000000000,116.0000000000,209.0000000000,53.0000000000
1717675261425,376.0000000000,179.0000000000,52.0000000000,115.0000000000,208.0000000000,53.0000000000
1717675261426,374.0000000000,177.0000000000,52.0000000000,115.0000000000,207.0000000000,53.0000000000
1717675261426,371.0000000000,176.0000000000,51.0000000000,114.0000000000,206.0000000000,52.0000000000
1717675261457,368.0000000000,176.0000000000,51.0000000000,113.0000000000,204.0000000000,52.0000000000
1717675261457,365.0000000000,175.0000000000,51.0000000000,113.0000000000,203.0000000000,51.0000000000
1717675261458,363.0000000000,174.0000000000,51.0000000000,112.0000000000,201.0000000000,51.0000000000
1717675261458,359.0000000000,172.0000000000,50.0000000000,112.0000000000,199.0000000000,51.0000000000
1717675261458,358.0000000000,172.0000000000,50.0000000000,156.0000000000,238.0000000000,51.0000000000
1717675261458,355.0000000000,171.0000000000,49.0000000000,183.0000000000,236.0000000000,51.0000000000
1717675261458,352.0000000000,169.0000000000,49.0000000000,180.0000000000,234.0000000000,50.0000000000
1717675261458,350.0000000000,168.0000000000,49.0000000000,179.0000000000,231.0000000000,50.0000000000
1717675261459,347.0000000000,167.0000000000,49.0000000000,177.0000000000,231.0000000000,50.0000000000
1717675261459,344.0000000000,167.0000000000,48.0000000000,176.0000000000,229.0000000000,49.0000000000
1717675261459,342.0000000000,166.0000000000,48.0000000000,175.0000000000,227.0000000000,49.0000000000
1717675261459,339.0000000000,165.0000000000,48.0000000000,174.0000000000,225.0000000000,49.0000000000
1717675261459,337.0000000000,163.0000000000,48.0000000000,173.0000000000,224.0000000000,48.0000000000
1717675261459,335.0000000000,163.0000000000,47.0000000000,171.0000000000,223.0000000000,48.0000000000
1717675261460,332.0000000000,162.0000000000,48.0000000000,170.0000000000,221.0000000000,48.0000000000
1717675261460,331.0000000000,161.0000000000,47.0000000000,169.0000000000,220.0000000000,48.0000000000
1717675261460,327.0000000000,159.0000000000,47.0000000000,167.0000000000,218.0000000000,48.0000000000
1717675261477,326.0000000000,159.0000000000,47.0000000000,167.0000000000,216.0000000000,47.0000000000
1717675261478,323.0000000000,159.0000000000,47.0000000000,166.0000000000,216.0000000000,47.0000000000
1717675261478,321.0000000000,158.0000000000,47.0000000000,164.0000000000,214.0000000000,47.0000000000
1717675261478,319.0000000000,157.0000000000,46.0000000000,163.0000000000,212.0000000000,46.0000000000
1717675261478,317.0000000000,216.0000000000,46.0000000000,163.0000000000,211.0000000000,46.0000000000
1717675261478,315.0000000000,246.0000000000,46.0000000000,161.0000000000,209.0000000000,45.0000000000
1717675261478,312.0000000000,243.0000000000,46.0000000000,159.0000000000,208.0000000000,45.0000000000
1717675261479,311.0000000000,241.0000000000,57.0000000000,159.0000000000,207.0000000000,45.0000000000
1717675261479,308.0000000000,240.0000000000,56.0000000000,163.0000000000,206.0000000000,44.0000000000
1717675261479,306.0000000000,238.0000000000,56.0000000000,163.0000000000,204.0000000000,44.0000000000
1717675261501,304.0000000000,236.0000000000,56.0000000000,161.0000000000,203.0000000000,44.0000000000
1717675261502,302.0000000000,234.0000000000,56.0000000000,159.0000000000,201.0000000000,44.0000000000
1717675261502,300.0000000000,231.0000000000,56.0000000000,159.0000000000,199.0000000000,44.0000000000
1717675261502,298.0000000000,231.0000000000,55.0000000000,158.0000000000,199.0000000000,44.0000000000
1717675261502,295.0000000000,229.0000000000,55.0000000000,157.0000000000,198.0000000000,43.0000000000
1717675261502,295.0000000000,227.0000000000,54.0000000000,156.0000000000,196.0000000000,43.0000000000
1717675261502,292.0000000000,226.0000000000,54.0000000000,155.0000000000,195.0000000000,43.0000000000
1717675261502,290.0000000000,224.0000000000,53.0000000000,153.0000000000,194.0000000000,42.0000000000
1717675261503,288.0000000000,223.0000000000,53.0000000000,152.0000000000,212.0000000000,42.0000000000
1717675261503,287.0000000000,222.0000000000,52.0000000000,152.0000000000,211.0000000000,41.0000000000
1717675261503,285.0000000000,220.0000000000,52.0000000000,151.0000000000,209.0000000000,41.0000000000
1717675261503,283.0000000000,219.0000000000,51.0000000000,150.0000000000,207.0000000000,41.0000000000
1717675261503,281.0000000000,217.0000000000,51.0000000000,148.0000000000,206.0000000000,41.0000000000
1717675261516,280.0000000000,216.0000000000,51.0000000000,147.0000000000,204.0000000000,40.0000000000
1717675261518,278.0000000000,214.0000000000,51.0000000000,147.0000000000,203.0000000000,41.0000000000
1717675261518,275.0000000000,212.0000000000,51.0000000000,146.0000000000,201.0000000000,40.0000000000
1717675261519,274.0000000000,211.0000000000,50.0000000000,145.0000000000,199.0000000000,39.0000000000
1717675261519,271.0000000000,209.0000000000,49.0000000000,143.0000000000,199.0000000000,39.0000000000
1717675261519,271.0000000000,208.0000000000,49.0000000000,143.0000000000,198.0000000000,39.0000000000
1717675261520,269.0000000000,207.0000000000,49.0000000000,142.0000000000,227.0000000000,39.0000000000
1717675261520,268.0000000000,206.0000000000,49.0000000000,142.0000000000,315.0000000000,52.0000000000
1717675261549,265.0000000000,204.0000000000,48.0000000000,144.0000000000,312.0000000000,52.0000000000
1717675261551,263.0000000000,203.0000000000,48.0000000000,143.0000000000,308.0000000000,51.0000000000
1717675261551,263.0000000000,201.0000000000,48.0000000000,142.0000000000,305.0000000000,51.0000000000
1717675261551,260.0000000000,199.0000000000,48.0000000000,141.0000000000,304.0000000000,51.0000000000
1717675261552,259.0000000000,199.0000000000,47.0000000000,140.0000000000,302.0000000000,51.0000000000
1717675261552,376.0000000000,198.0000000000,47.0000000000,140.0000000000,300.0000000000,50.0000000000
1717675261552,369.0000000000,196.0000000000,47.0000000000,139.0000000000,297.0000000000,49.0000000000
1717675261552,366.0000000000,195.0000000000,47.0000000000,137.0000000000,295.0000000000,49.0000000000
1717675261553,363.0000000000,194.0000000000,46.0000000000,136.0000000000,292.0000000000,49.0000000000
1717675261553,359.0000000000,193.0000000000,46.0000000000,135.0000000000,291.0000000000,48.0000000000
1717675261553,357.0000000000,192.0000000000,46.0000000000,135.0000000000,288.0000000000,48.0000000000
1717675261553,353.0000000000,191.0000000000,45.0000000000,135.0000000000,286.0000000000,48.0000000000
1717675261554,351.0000000000,189.0000000000,45.0000000000,134.0000000000,284.0000000000,48.0000000000
1717675261554,348.0000000000,188.0000000000,45.0000000000,133.0000000000,282.0000000000,47.0000000000
1717675261554,436.0000000000,188.0000000000,44.0000000000,132.0000000000,280.0000000000,47.0000000000
1717675261555,553.0000000000,185.0000000000,44.0000000000,131.0000000000,278.0000000000,47.0000000000
1717675261555,546.0000000000,184.0000000000,44.0000000000,131.0000000000,276.0000000000,46.0000000000
1717675261555,540.0000000000,188.0000000000,43.0000000000,129.0000000000,275.0000000000,46.0000000000
1717675261555,535.0000000000,227.0000000000,43.0000000000,129.0000000000,273.0000000000,46.0000000000
1717675261571,529.0000000000,226.0000000000,43.0000000000,127.0000000000,271.0000000000,45.0000000000
1717675261572,523.0000000000,224.0000000000,43.0000000000,127.0000000000,269.0000000000,45.0000000000
1717675261572,518.0000000000,222.0000000000,43.0000000000,126.0000000000,268.0000000000,45.0000000000
1717675261572,513.0000000000,220.0000000000,42.0000000000,126.0000000000,265.0000000000,44.0000000000
1717675261572,508.0000000000,219.0000000000,42.0000000000,125.0000000000,263.0000000000,44.0000000000
1717675261572,504.0000000000,217.0000000000,41.0000000000,124.0000000000,262.0000000000,44.0000000000
1717675261572,499.0000000000,216.0000000000,41.0000000000,124.0000000000,260.0000000000,44.0000000000
1717675261573,494.0000000000,214.0000000000,41.0000000000,123.0000000000,258.0000000000,43.0000000000
1717675261592,489.0000000000,212.0000000000,41.0000000000,121.0000000000,255.0000000000,43.0000000000
1717675261593,485.0000000000,211.0000000000,40.0000000000,121.0000000000,255.0000000000,43.0000000000
1717675261593,481.0000000000,210.0000000000,39.0000000000,120.0000000000,254.0000000000,42.0000000000
1717675261593,477.0000000000,209.0000000000,39.0000000000,120.0000000000,252.0000000000,42.0000000000
1717675261593,472.0000000000,207.0000000000,39.0000000000,119.0000000000,250.0000000000,41.0000000000
1717675261593,468.0000000000,206.0000000000,39.0000000000,118.0000000000,248.0000000000,41.0000000000
1717675261593,464.0000000000,204.0000000000,39.0000000000,211.0000000000,247.0000000000,41.0000000000
1717675261593,460.0000000000,203.0000000000,39.0000000000,212.0000000000,246.0000000000,41.0000000000
1717675261593,456.0000000000,201.0000000000,39.0000000000,210.0000000000,244.0000000000,41.0000000000
1717675261594,453.0000000000,199.0000000000,39.0000000000,208.0000000000,243.0000000000,39.0000000000
1717675261594,448.0000000000,199.0000000000,39.0000000000,207.0000000000,241.0000000000,39.0000000000
1717675261609,445.0000000000,198.0000000000,39.0000000000,205.0000000000,240.0000000000,39.0000000000
1717675261609,441.0000000000,196.0000000000,38.0000000000,204.0000000000,238.0000000000,39.0000000000
1717675261610,438.0000000000,195.0000000000,38.0000000000,203.0000000000,236.0000000000,39.0000000000
1717675261610,434.0000000000,193.0000000000,38.0000000000,200.0000000000,235.0000000000,39.0000000000
1717675261610,431.0000000000,193.0000000000,38.0000000000,199.0000000000,241.0000000000,67.0000000000
1717675261610,427.0000000000,192.0000000000,38.0000000000,198.0000000000,291.0000000000,68.0000000000
1717675261610,423.0000000000,190.0000000000,38.0000000000,196.0000000000,289.0000000000,67.0000000000
1717675261610,420.0000000000,189.0000000000,37.0000000000,195.0000000000,287.0000000000,67.0000000000
1717675261624,417.0000000000,188.0000000000,36.0000000000,193.0000000000,285.0000000000,66.0000000000
1717675261624,414.0000000000,187.0000000000,36.0000000000,192.0000000000,283.0000000000,65.0000000000
1717675261624,411.0000000000,185.0000000000,36.0000000000,191.0000000000,280.0000000000,65.0000000000
1717675261625,408.0000000000,184.0000000000,36.0000000000,190.0000000000,279.0000000000,64.0000000000
1717675261625,404.0000000000,184.0000000000,36.0000000000,188.0000000000,276.0000000000,63.0000000000
1717675261625,401.0000000000,182.0000000000,35.0000000000,187.0000000000,274.0000000000,63.0000000000
1717675261625,398.0000000000,180.0000000000,35.0000000000,186.0000000000,271.0000000000,63.0000000000
1717675261625,395.0000000000,179.0000000000,35.0000000000,184.0000000000,271.0000000000,63.0000000000
1717675261639,391.0000000000,178.0000000000,35.0000000000,184.0000000000,268.0000000000,63.0000000000
1717675261640,388.0000000000,177.0000000000,35.0000000000,182.0000000000,267.0000000000,62.0000000000
1717675261640,386.0000000000,176.0000000000,35.0000000000,181.0000000000,263.0000000000,62.0000000000
1717675261640,384.0000000000,175.0000000000,35.0000000000,179.0000000000,263.0000000000,61.0000000000
1717675261640,380.0000000000,174.0000000000,34.0000000000,179.0000000000,261.0000000000,61.0000000000
1717675261640,377.0000000000,173.0000000000,34.0000000000,177.0000000000,259.0000000000,60.0000000000
1717675261640,375.0000000000,172.0000000000,67.0000000000,176.0000000000,258.0000000000,60.0000000000
1717675261655,372.0000000000,171.0000000000,67.0000000000,175.0000000000,255.0000000000,60.0000000000
1717675261656,369.0000000000,170.0000000000,67.0000000000,174.0000000000,254.0000000000,60.0000000000
1717675261656,367.0000000000,169.0000000000,66.0000000000,173.0000000000,252.0000000000,59.0000000000
1717675261656,364.0000000000,167.0000000000,65.0000000000,172.0000000000,251.0000000000,59.0000000000
1717675261656,361.0000000000,167.0000000000,65.0000000000,171.0000000000,249.0000000000,58.0000000000
1717675261656,359.0000000000,166.0000000000,64.0000000000,169.0000000000,248.0000000000,57.0000000000
1717675261657,356.0000000000,165.0000000000,63.0000000000,168.0000000000,246.0000000000,57.0000000000
1717675261657,354.0000000000,224.0000000000,65.0000000000,167.0000000000,244.0000000000,57.0000000000
1717675261673,352.0000000000,221.0000000000,65.0000000000,167.0000000000,243.0000000000,56.0000000000
1717675261674,349.0000000000,220.0000000000,63.0000000000,166.0000000000,241.0000000000,56.0000000000
1717675261674,352.0000000000,218.0000000000,63.0000000000,164.0000000000,240.0000000000,56.0000000000
1717675261674,412.0000000000,216.0000000000,63.0000000000,163.0000000000,238.0000000000,56.0000000000
1717675261675,408.0000000000,215.0000000000,63.0000000000,162.0000000000,236.0000000000,55.0000000000
1717675261675,404.0000000000,213.0000000000,62.0000000000,161.0000000000,235.0000000000,55.0000000000
1717675261675,401.0000000000,211.0000000000,62.0000000000,159.0000000000,233.0000000000,55.0000000000
1717675261675,398.0000000000,210.0000000000,62.0000000000,159.0000000000,231.0000000000,54.0000000000
1717675261675,393.0000000000,208.0000000000,61.0000000000,158.0000000000,231.0000000000,54.0000000000
1717675261675,391.0000000000,207.0000000000,61.0000000000,157.0000000000,230.0000000000,53.0000000000
1717675261675,387.0000000000,206.0000000000,60.0000000000,156.0000000000,227.0000000000,53.0000000000
1717675261691,384.0000000000,204.0000000000,60.0000000000,155.0000000000,227.0000000000,52.0000000000
1717675261692,381.0000000000,203.0000000000,60.0000000000,154.0000000000,225.0000000000,52.0000000000
1717675261692,377.0000000000,201.0000000000,59.0000000000,153.0000000000,224.0000000000,51.0000000000
1717675261692,375.0000000000,199.0000000000,59.0000000000,152.0000000000,222.0000000000,52.0000000000
1717675261692,371.0000000000,199.0000000000,59.0000000000,152.0000000000,221.0000000000,54.0000000000
1717675261692,368.0000000000,198.0000000000,58.0000000000,151.0000000000,220.0000000000,53.0000000000
1717675261692,366.0000000000,196.0000000000,57.0000000000,150.0000000000,218.0000000000,53.0000000000
1717675261692,363.0000000000,195.0000000000,57.0000000000,148.0000000000,216.0000000000,52.0000000000
1717675261765,359.0000000000,193.0000000000,56.0000000000,147.0000000000,216.0000000000,52.0000000000
1717675261767,357.0000000000,192.0000000000,56.0000000000,147.0000000000,215.0000000000,51.0000000000
1717675261768,355.0000000000,192.0000000000,56.0000000000,145.0000000000,213.0000000000,51.0000000000
1717675261768,352.0000000000,190.0000000000,56.0000000000,145.0000000000,211.0000000000,51.0000000000
1717675261769,350.0000000000,188.0000000000,56.0000000000,143.0000000000,211.0000000000,51.0000000000
1717675261769,347.0000000000,187.0000000000,55.0000000000,143.0000000000,209.0000000000,50.0000000000
1717675261770,344.0000000000,186.0000000000,55.0000000000,143.0000000000,207.0000000000,50.0000000000
1717675261771,342.0000000000,184.0000000000,55.0000000000,141.0000000000,207.0000000000,49.0000000000
1717675261772,339.0000000000,184.0000000000,54.0000000000,140.0000000000,206.0000000000,49.0000000000
1717675261772,337.0000000000,183.0000000000,54.0000000000,140.0000000000,204.0000000000,49.0000000000
1717675261773,335.0000000000,182.0000000000,53.0000000000,158.0000000000,203.0000000000,49.0000000000
1717675261773,332.0000000000,180.0000000000,53.0000000000,156.0000000000,201.0000000000,48.0000000000
1717675261774,329.0000000000,179.0000000000,52.0000000000,155.0000000000,199.0000000000,48.0000000000
1717675261774,327.0000000000,178.0000000000,52.0000000000,153.0000000000,334.0000000000,48.0000000000
1717675261775,326.0000000000,177.0000000000,51.0000000000,152.0000000000,332.0000000000,48.0000000000
1717675261775,323.0000000000,176.0000000000,51.0000000000,152.0000000000,330.0000000000,47.0000000000
1717675261776,321.0000000000,239.0000000000,51.0000000000,150.0000000000,327.0000000000,47.0000000000
1717675261777,319.0000000000,236.0000000000,51.0000000000,149.0000000000,324.0000000000,46.0000000000
1717675261777,317.0000000000,235.0000000000,51.0000000000,148.0000000000,322.0000000000,46.0000000000
1717675261778,315.0000000000,231.0000000000,50.0000000000,147.0000000000,319.0000000000,46.0000000000
1717675261778,313.0000000000,231.0000000000,50.0000000000,146.0000000000,317.0000000000,46.0000000000
1717675261779,311.0000000000,229.0000000000,49.0000000000,145.0000000000,315.0000000000,45.0000000000
1717675261780,308.0000000000,227.0000000000,49.0000000000,144.0000000000,312.0000000000,45.0000000000
1717675261781,307.0000000000,226.0000000000,49.0000000000,143.0000000000,310.0000000000,45.0000000000
1717675261782,304.0000000000,224.0000000000,48.0000000000,143.0000000000,307.0000000000,44.0000000000
1717675261782,303.0000000000,223.0000000000,49.0000000000,141.0000000000,305.0000000000,44.0000000000
1717675261783,300.0000000000,221.0000000000,49.0000000000,140.0000000000,303.0000000000,44.0000000000
1717675261784,299.0000000000,220.0000000000,49.0000000000,140.0000000000,301.0000000000,44.0000000000
1717675261784,297.0000000000,218.0000000000,48.0000000000,139.0000000000,299.0000000000,43.0000000000
1717675261785,339.0000000000,216.0000000000,48.0000000000,137.0000000000,296.0000000000,44.0000000000
1717675261785,335.0000000000,216.0000000000,48.0000000000,137.0000000000,295.0000000000,43.0000000000
1717675261786,332.0000000000,214.0000000000,48.0000000000,135.0000000000,292.0000000000,43.0000000000
1717675261786,329.0000000000,212.0000000000,48.0000000000,135.0000000000,291.0000000000,42.0000000000
1717675261786,327.0000000000,211.0000000000,48.0000000000,134.0000000000,289.0000000000,41.0000000000
1717675261787,324.0000000000,209.0000000000,83.0000000000,134.0000000000,287.0000000000,41.0000000000
1717675261787,321.0000000000,207.0000000000,82.0000000000,132.0000000000,284.0000000000,41.0000000000
1717675261787,319.0000000000,207.0000000000,81.0000000000,131.0000000000,283.0000000000,41.0000000000
1717675261787,316.0000000000,205.0000000000,81.0000000000,131.0000000000,280.0000000000,41.0000000000
1717675261788,313.0000000000,204.0000000000,80.0000000000,130.0000000000,279.0000000000,40.0000000000
1717675261788,312.0000000000,203.0000000000,79.0000000000,129.0000000000,276.0000000000,40.0000000000
1717675261789,309.0000000000,201.0000000000,79.0000000000,128.0000000000,275.0000000000,39.0000000000
1717675261789,307.0000000000,199.0000000000,79.0000000000,127.0000000000,273.0000000000,39.0000000000
1717675261789,304.0000000000,199.0000000000,78.0000000000,127.0000000000,271.0000000000,39.0000000000
1717675261789,302.0000000000,198.0000000000,78.0000000000,126.0000000000,270.0000000000,44.0000000000
1717675261790,300.0000000000,196.0000000000,77.0000000000,126.0000000000,268.0000000000,44.0000000000
1717675261790,297.0000000000,195.0000000000,76.0000000000,124.0000000000,266.0000000000,44.0000000000
1717675261790,295.0000000000,193.0000000000,76.0000000000,124.0000000000,264.0000000000,43.0000000000
1717675261790,294.0000000000,192.0000000000,76.0000000000,124.0000000000,263.0000000000,43.0000000000
1717675261791,291.0000000000,191.0000000000,75.0000000000,123.0000000000,261.0000000000,43.0000000000
1717675261791,289.0000000000,190.0000000000,75.0000000000,121.0000000000,259.0000000000,43.0000000000
1717675261846,287.0000000000,277.0000000000,74.0000000000,121.0000000000,257.0000000000,42.0000000000
1717675261847,286.0000000000,273.0000000000,73.0000000000,120.0000000000,255.0000000000,41.0000000000
1717675261848,284.0000000000,270.0000000000,73.0000000000,120.0000000000,255.0000000000,41.0000000000
1717675261848,283.0000000000,268.0000000000,72.0000000000,119.0000000000,252.0000000000,41.0000000000
1717675261848,280.0000000000,267.0000000000,71.0000000000,119.0000000000,251.0000000000,40.0000000000
1717675261848,280.0000000000,263.0000000000,71.0000000000,118.0000000000,249.0000000000,40.0000000000
1717675261848,278.0000000000,263.0000000000,71.0000000000,117.0000000000,248.0000000000,39.0000000000
1717675261848,275.0000000000,262.0000000000,71.0000000000,116.0000000000,247.0000000000,39.0000000000
1717675261848,367.0000000000,259.0000000000,70.0000000000,115.0000000000,245.0000000000,39.0000000000
1717675261848,406.0000000000,257.0000000000,70.0000000000,115.0000000000,243.0000000000,39.0000000000
1717675261848,401.0000000000,255.0000000000,70.0000000000,114.0000000000,242.0000000000,39.0000000000
1717675261848,398.0000000000,254.0000000000,69.0000000000,113.0000000000,240.0000000000,39.0000000000
1717675261848,393.0000000000,252.0000000000,68.0000000000,113.0000000000,240.0000000000,39.0000000000
1717675261849,391.0000000000,251.0000000000,68.0000000000,112.0000000000,238.0000000000,39.0000000000
1717675261849,387.0000000000,248.0000000000,67.0000000000,112.0000000000,236.0000000000,38.0000000000
1717675261849,384.0000000000,248.0000000000,67.0000000000,111.0000000000,235.0000000000,38.0000000000
1717675261849,380.0000000000,245.0000000000,67.0000000000,110.0000000000,233.0000000000,38.0000000000
1717675261849,377.0000000000,243.0000000000,67.0000000000,110.0000000000,231.0000000000,38.0000000000
1717675261849,374.0000000000,242.0000000000,66.0000000000,109.0000000000,230.0000000000,37.0000000000
1717675261850,371.0000000000,240.0000000000,65.0000000000,108.0000000000,228.0000000000,37.0000000000
1717675261850,368.0000000000,239.0000000000,65.0000000000,108.0000000000,227.0000000000,37.0000000000
1717675261850,365.0000000000,237.0000000000,64.0000000000,107.0000000000,226.0000000000,37.0000000000
1717675261850,363.0000000000,236.0000000000,64.0000000000,107.0000000000,225.0000000000,36.0000000000
1717675261850,359.0000000000,234.0000000000,63.0000000000,105.0000000000,295.0000000000,36.0000000000
1717675261852,356.0000000000,231.0000000000,63.0000000000,105.0000000000,291.0000000000,35.0000000000
1717675261852,354.0000000000,231.0000000000,63.0000000000,104.0000000000,289.0000000000,35.0000000000
1717675261852,351.0000000000,229.0000000000,63.0000000000,103.0000000000,287.0000000000,35.0000000000
1717675261852,348.0000000000,227.0000000000,62.0000000000,103.0000000000,284.0000000000,35.0000000000
1717675261852,345.0000000000,226.0000000000,62.0000000000,103.0000000000,282.0000000000,35.0000000000
1717675261852,344.0000000000,224.0000000000,62.0000000000,103.0000000000,280.0000000000,35.0000000000
1717675261852,340.0000000000,223.0000000000,61.0000000000,102.0000000000,278.0000000000,35.0000000000
1717675261878,338.0000000000,222.0000000000,61.0000000000,120.0000000000,327.0000000000,107.0000000000
1717675261880,335.0000000000,220.0000000000,60.0000000000,180.0000000000,323.0000000000,104.0000000000
1717675261880,333.0000000000,219.0000000000,60.0000000000,178.0000000000,319.0000000000,103.0000000000
1717675261880,330.0000000000,217.0000000000,60.0000000000,176.0000000000,318.0000000000,103.0000000000
1717675261880,327.0000000000,216.0000000000,60.0000000000,175.0000000000,316.0000000000,102.0000000000
1717675261880,325.0000000000,215.0000000000,59.0000000000,174.0000000000,313.0000000000,100.0000000000
1717675261881,323.0000000000,213.0000000000,58.0000000000,172.0000000000,311.0000000000,100.0000000000
1717675261881,319.0000000000,211.0000000000,57.0000000000,172.0000000000,307.0000000000,99.0000000000
1717675261881,318.0000000000,211.0000000000,57.0000000000,171.0000000000,305.0000000000,99.0000000000
1717675261881,316.0000000000,209.0000000000,57.0000000000,169.0000000000,304.0000000000,98.0000000000
1717675261881,313.0000000000,207.0000000000,56.0000000000,167.0000000000,302.0000000000,97.0000000000
1717675261881,312.0000000000,206.0000000000,56.0000000000,167.0000000000,299.0000000000,96.0000000000
1717675261881,309.0000000000,207.0000000000,56.0000000000,166.0000000000,297.0000000000,96.0000000000
1717675261882,307.0000000000,276.0000000000,56.0000000000,164.0000000000,295.0000000000,95.0000000000
1717675261882,304.0000000000,273.0000000000,56.0000000000,163.0000000000,292.0000000000,95.0000000000
1717675261899,303.0000000000,271.0000000000,55.0000000000,162.0000000000,291.0000000000,94.0000000000
1717675261900,300.0000000000,268.0000000000,55.0000000000,161.0000000000,288.0000000000,93.0000000000
1717675261900,299.0000000000,267.0000000000,55.0000000000,159.0000000000,287.0000000000,93.0000000000
1717675261900,295.0000000000,287.0000000000,54.0000000000,159.0000000000,285.0000000000,92.0000000000
1717675261900,457.0000000000,354.0000000000,54.0000000000,158.0000000000,283.0000000000,92.0000000000
1717675261901,469.0000000000,353.0000000000,54.0000000000,156.0000000000,280.0000000000,91.0000000000
1717675261901,463.0000000000,349.0000000000,53.0000000000,156.0000000000,279.0000000000,90.0000000000
1717675261901,460.0000000000,346.0000000000,52.0000000000,155.0000000000,278.0000000000,89.0000000000
1717675261902,455.0000000000,344.0000000000,52.0000000000,153.0000000000,275.0000000000,89.0000000000
1717675261902,451.0000000000,340.0000000000,51.0000000000,152.0000000000,273.0000000000,88.0000000000
1717675261923,447.0000000000,338.0000000000,51.0000000000,152.0000000000,271.0000000000,88.0000000000
1717675261924,443.0000000000,349.0000000000,51.0000000000,151.0000000000,270.0000000000,88.0000000000
1717675261924,439.0000000000,367.0000000000,51.0000000000,150.0000000000,268.0000000000,87.0000000000
1717675261924,435.0000000000,363.0000000000,51.0000000000,148.0000000000,266.0000000000,86.0000000000
1717675261924,431.0000000000,359.0000000000,50.0000000000,147.0000000000,263.0000000000,86.0000000000
1717675261924,428.0000000000,356.0000000000,50.0000000000,147.0000000000,263.0000000000,85.0000000000
1717675261925,423.0000000000,354.0000000000,50.0000000000,146.0000000000,261.0000000000,84.0000000000
1717675261925,420.0000000000,352.0000000000,49.0000000000,156.0000000000,259.0000000000,84.0000000000
1717675261925,416.0000000000,349.0000000000,49.0000000000,155.0000000000,257.0000000000,83.0000000000
1717675261925,413.0000000000,347.0000000000,49.0000000000,153.0000000000,255.0000000000,83.0000000000
1717675261925,409.0000000000,344.0000000000,48.0000000000,152.0000000000,254.0000000000,83.0000000000
1717675261925,406.0000000000,340.0000000000,48.0000000000,152.0000000000,252.0000000000,82.0000000000
1717675261925,403.0000000000,338.0000000000,48.0000000000,151.0000000000,251.0000000000,81.0000000000
1717675261941,399.0000000000,335.0000000000,48.0000000000,150.0000000000,249.0000000000,81.0000000000
1717675261942,396.0000000000,333.0000000000,48.0000000000,148.0000000000,248.0000000000,80.0000000000
1717675261942,393.0000000000,331.0000000000,47.0000000000,147.0000000000,247.0000000000,79.0000000000
1717675261943,390.0000000000,327.0000000000,47.0000000000,146.0000000000,245.0000000000,79.0000000000
1717675261943,387.0000000000,326.0000000000,47.0000000000,145.0000000000,243.0000000000,79.0000000000
1717675261943,384.0000000000,323.0000000000,46.0000000000,143.0000000000,242.0000000000,79.0000000000
1717675261943,381.0000000000,321.0000000000,46.0000000000,143.0000000000,240.0000000000,78.0000000000
1717675261944,378.0000000000,319.0000000000,46.0000000000,143.0000000000,239.0000000000,78.0000000000
1717675261944,376.0000000000,316.0000000000,46.0000000000,142.0000000000,237.0000000000,77.0000000000
1717675261944,372.0000000000,315.0000000000,46.0000000000,140.0000000000,236.0000000000,76.0000000000
1717675261960,369.0000000000,312.0000000000,45.0000000000,140.0000000000,234.0000000000,76.0000000000
1717675261960,367.0000000000,310.0000000000,45.0000000000,139.0000000000,233.0000000000,76.0000000000
1717675261961,364.0000000000,307.0000000000,44.0000000000,137.0000000000,231.0000000000,75.0000000000
1717675261961,361.0000000000,305.0000000000,44.0000000000,136.0000000000,230.0000000000,75.0000000000
1717675261961,359.0000000000,304.0000000000,44.0000000000,135.0000000000,280.0000000000,74.0000000000
1717675261961,355.0000000000,302.0000000000,44.0000000000,135.0000000000,279.0000000000,73.0000000000
1717675261961,353.0000000000,299.0000000000,44.0000000000,135.0000000000,276.0000000000,73.0000000000
1717675261961,351.0000000000,297.0000000000,43.0000000000,134.0000000000,275.0000000000,72.0000000000
1717675261961,348.0000000000,295.0000000000,43.0000000000,132.0000000000,271.0000000000,72.0000000000
1717675261979,345.0000000000,293.0000000000,43.0000000000,131.0000000000,270.0000000000,71.0000000000
1717675261979,344.0000000000,291.0000000000,43.0000000000,131.0000000000,268.0000000000,120.0000000000
1717675261980,340.0000000000,289.0000000000,42.0000000000,130.0000000000,266.0000000000,118.0000000000
1717675261980,338.0000000000,287.0000000000,42.0000000000,129.0000000000,263.0000000000,117.0000000000
1717675261980,335.0000000000,286.0000000000,41.0000000000,128.0000000000,262.0000000000,115.0000000000
1717675261980,333.0000000000,284.0000000000,41.0000000000,127.0000000000,260.0000000000,115.0000000000
1717675261981,331.0000000000,281.0000000000,40.0000000000,127.0000000000,259.0000000000,114.0000000000
1717675261981,327.0000000000,280.0000000000,40.0000000000,126.0000000000,255.0000000000,113.0000000000
1717675261999,326.0000000000,278.0000000000,39.0000000000,125.0000000000,255.0000000000,112.0000000000
1717675262000,323.0000000000,275.0000000000,39.0000000000,124.0000000000,253.0000000000,112.0000000000
1717675262000,321.0000000000,355.0000000000,39.0000000000,124.0000000000,251.0000000000,111.0000000000
1717675262000,319.0000000000,351.0000000000,39.0000000000,123.0000000000,249.0000000000,110.0000000000
1717675262000,316.0000000000,348.0000000000,39.0000000000,121.0000000000,248.0000000000,109.0000000000
1717675262000,420.0000000000,344.0000000000,39.0000000000,121.0000000000,246.0000000000,108.0000000000
1717675262001,415.0000000000,342.0000000000,39.0000000000,120.0000000000,244.0000000000,108.0000000000
1717675262001,411.0000000000,339.0000000000,39.0000000000,120.0000000000,243.0000000000,107.0000000000
1717675262001,408.0000000000,336.0000000000,39.0000000000,211.0000000000,241.0000000000,106.0000000000
1717675262001,403.0000000000,334.0000000000,38.0000000000,208.0000000000,239.0000000000,105.0000000000
1717675262002,399.0000000000,331.0000000000,38.0000000000,206.0000000000,237.0000000000,105.0000000000
1717675262002,396.0000000000,327.0000000000,38.0000000000,204.0000000000,236.0000000000,103.0000000000
1717675262024,391.0000000000,326.0000000000,38.0000000000,203.0000000000,234.0000000000,103.0000000000
1717675262025,389.0000000000,323.0000000000,38.0000000000,201.0000000000,231.0000000000,103.0000000000
1717675262025,385.0000000000,319.0000000000,38.0000000000,199.0000000000,231.0000000000,102.0000000000
1717675262025,383.0000000000,318.0000000000,37.0000000000,198.0000000000,230.0000000000,102.0000000000
1717675262025,380.0000000000,316.0000000000,37.0000000000,196.0000000000,228.0000000000,100.0000000000
1717675262026,376.0000000000,313.0000000000,36.0000000000,195.0000000000,227.0000000000,100.0000000000
1717675262026,372.0000000000,312.0000000000,36.0000000000,193.0000000000,225.0000000000,99.0000000000
1717675262026,370.0000000000,309.0000000000,36.0000000000,192.0000000000,224.0000000000,99.0000000000
1717675262026,367.0000000000,307.0000000000,41.0000000000,191.0000000000,223.0000000000,98.0000000000
1717675262027,364.0000000000,304.0000000000,41.0000000000,190.0000000000,221.0000000000,97.0000000000
1717675262027,361.0000000000,302.0000000000,39.0000000000,188.0000000000,220.0000000000,97.0000000000
1717675262027,358.0000000000,300.0000000000,40.0000000000,187.0000000000,219.0000000000,96.0000000000
1717675262067,355.0000000000,297.0000000000,39.0000000000,185.0000000000,217.0000000000,96.0000000000
1717675262069,353.0000000000,295.0000000000,39.0000000000,184.0000000000,216.0000000000,95.0000000000
1717675262070,351.0000000000,294.0000000000,39.0000000000,184.0000000000,215.0000000000,95.0000000000
1717675262070,348.0000000000,291.0000000000,39.0000000000,182.0000000000,214.0000000000,94.0000000000
1717675262070,345.0000000000,291.0000000000,39.0000000000,181.0000000000,212.0000000000,93.0000000000
1717675262070,343.0000000000,287.0000000000,39.0000000000,179.0000000000,211.0000000000,93.0000000000
1717675262071,340.0000000000,286.0000000000,39.0000000000,179.0000000000,209.0000000000,92.0000000000
1717675262071,337.0000000000,284.0000000000,38.0000000000,177.0000000000,207.0000000000,92.0000000000
1717675262071,335.0000000000,282.0000000000,38.0000000000,176.0000000000,207.0000000000,91.0000000000
1717675262071,332.0000000000,280.0000000000,38.0000000000,175.0000000000,206.0000000000,91.0000000000
1717675262072,329.0000000000,278.0000000000,38.0000000000,174.0000000000,204.0000000000,89.0000000000
1717675262072,327.0000000000,276.0000000000,37.0000000000,172.0000000000,204.0000000000,89.0000000000
1717675262072,325.0000000000,275.0000000000,37.0000000000,172.0000000000,202.0000000000,88.0000000000
1717675262072,352.0000000000,273.0000000000,36.0000000000,171.0000000000,201.0000000000,88.0000000000
1717675262073,488.0000000000,271.0000000000,36.0000000000,169.0000000000,199.0000000000,88.0000000000
1717675262073,483.0000000000,270.0000000000,36.0000000000,167.0000000000,199.0000000000,87.0000000000
1717675262073,478.0000000000,268.0000000000,36.0000000000,167.0000000000,198.0000000000,87.0000000000
1717675262074,472.0000000000,265.0000000000,35.0000000000,167.0000000000,196.0000000000,86.0000000000
1717675262074,468.0000000000,263.0000000000,35.0000000000,165.0000000000,195.0000000000,86.0000000000
1717675262074,463.0000000000,263.0000000000,35.0000000000,164.0000000000,194.0000000000,85.0000000000
1717675262075,460.0000000000,261.0000000000,35.0000000000,163.0000000000,193.0000000000,84.0000000000
1717675262075,455.0000000000,259.0000000000,35.0000000000,162.0000000000,192.0000000000,83.0000000000
1717675262075,451.0000000000,257.0000000000,35.0000000000,161.0000000000,192.0000000000,83.0000000000
1717675262076,448.0000000000,255.0000000000,35.0000000000,159.0000000000,190.0000000000,83.0000000000
1717675262076,444.0000000000,255.0000000000,35.0000000000,159.0000000000,189.0000000000,82.0000000000
1717675262099,440.0000000000,253.0000000000,79.0000000000,158.0000000000,188.0000000000,81.0000000000
1717675262100,435.0000000000,251.0000000000,79.0000000000,157.0000000000,187.0000000000,81.0000000000
1717675262100,432.0000000000,249.0000000000,78.0000000000,156.0000000000,185.0000000000,81.0000000000
1717675262100,428.0000000000,248.0000000000,77.0000000000,155.0000000000,184.0000000000,80.0000000000
1717675262100,424.0000000000,247.0000000000,76.0000000000,153.0000000000,184.0000000000,79.0000000000
1717675262100,421.0000000000,244.0000000000,76.0000000000,153.0000000000,182.0000000000,79.0000000000
1717675262101,417.0000000000,243.0000000000,76.0000000000,152.0000000000,182.0000000000,79.0000000000
1717675262101,414.0000000000,242.0000000000,75.0000000000,151.0000000000,180.0000000000,79.0000000000
1717675262101,411.0000000000,241.0000000000,75.0000000000,150.0000000000,179.0000000000,78.0000000000
1717675262101,408.0000000000,240.0000000000,74.0000000000,149.0000000000,178.0000000000,78.0000000000
1717675262101,404.0000000000,238.0000000000,73.0000000000,148.0000000000,177.0000000000,77.0000000000
1717675262101,401.0000000000,236.0000000000,72.0000000000,147.0000000000,176.0000000000,76.0000000000
1717675262101,398.0000000000,235.0000000000,72.0000000000,146.0000000000,176.0000000000,76.0000000000
1717675262118,395.0000000000,233.0000000000,71.0000000000,145.0000000000,175.0000000000,76.0000000000
1717675262120,391.0000000000,231.0000000000,71.0000000000,144.0000000000,174.0000000000,75.0000000000
1717675262120,388.0000000000,231.0000000000,71.0000000000,143.0000000000,172.0000000000,75.0000000000
1717675262120,385.0000000000,229.0000000000,71.0000000000,143.0000000000,172.0000000000,74.0000000000
1717675262120,383.0000000000,227.0000000000,70.0000000000,142.0000000000,171.0000000000,73.0000000000
1717675262120,380.0000000000,226.0000000000,70.0000000000,141.0000000000,169.0000000000,73.0000000000
1717675262120,376.0000000000,225.0000000000,69.0000000000,140.0000000000,168.0000000000,72.0000000000
1717675262120,374.0000000000,224.0000000000,68.0000000000,140.0000000000,167.0000000000,71.0000000000
1717675262140,371.0000000000,222.0000000000,68.0000000000,139.0000000000,167.0000000000,71.0000000000
1717675262140,368.0000000000,222.0000000000,67.0000000000,137.0000000000,216.0000000000,71.0000000000
1717675262141,366.0000000000,220.0000000000,67.0000000000,137.0000000000,225.0000000000,71.0000000000
1717675262141,363.0000000000,219.0000000000,67.0000000000,135.0000000000,224.0000000000,71.0000000000
1717675262141,359.0000000000,217.0000000000,66.0000000000,135.0000000000,222.0000000000,71.0000000000
1717675262141,358.0000000000,216.0000000000,66.0000000000,134.0000000000,220.0000000000,70.0000000000
1717675262141,355.0000000000,215.0000000000,65.0000000000,134.0000000000,219.0000000000,69.0000000000
1717675262141,352.0000000000,213.0000000000,65.0000000000,132.0000000000,217.0000000000,69.0000000000
1717675262141,350.0000000000,212.0000000000,65.0000000000,131.0000000000,216.0000000000,68.0000000000
1717675262141,347.0000000000,211.0000000000,63.0000000000,131.0000000000,215.0000000000,68.0000000000
1717675262142,345.0000000000,209.0000000000,63.0000000000,130.0000000000,212.0000000000,67.0000000000
1717675262142,343.0000000000,207.0000000000,63.0000000000,129.0000000000,211.0000000000,67.0000000000
1717675262142,339.0000000000,207.0000000000,63.0000000000,129.0000000000,209.0000000000,67.0000000000
1717675262159,337.0000000000,206.0000000000,63.0000000000,127.0000000000,207.0000000000,67.0000000000
1717675262159,335.0000000000,204.0000000000,63.0000000000,127.0000000000,207.0000000000,67.0000000000
1717675262160,332.0000000000,204.0000000000,62.0000000000,126.0000000000,206.0000000000,65.0000000000
1717675262160,330.0000000000,202.0000000000,62.0000000000,126.0000000000,204.0000000000,65.0000000000
1717675262160,327.0000000000,201.0000000000,61.0000000000,125.0000000000,203.0000000000,65.0000000000
1717675262160,326.0000000000,199.0000000000,61.0000000000,124.0000000000,201.0000000000,65.0000000000
1717675262160,323.0000000000,199.0000000000,60.0000000000,124.0000000000,199.0000000000,65.0000000000
1717675262160,321.0000000000,198.0000000000,60.0000000000,123.0000000000,199.0000000000,64.0000000000
1717675262177,319.0000000000,291.0000000000,60.0000000000,121.0000000000,198.0000000000,63.0000000000
1717675262177,317.0000000000,287.0000000000,60.0000000000,121.0000000000,196.0000000000,63.0000000000
1717675262177,315.0000000000,286.0000000000,59.0000000000,120.0000000000,195.0000000000,63.0000000000
1717675262178,312.0000000000,284.0000000000,59.0000000000,120.0000000000,194.0000000000,63.0000000000
1717675262178,311.0000000000,281.0000000000,59.0000000000,119.0000000000,192.0000000000,63.0000000000
1717675262178,308.0000000000,279.0000000000,58.0000000000,119.0000000000,192.0000000000,62.0000000000
1717675262178,306.0000000000,277.0000000000,57.0000000000,118.0000000000,190.0000000000,62.0000000000
1717675262178,304.0000000000,275.0000000000,57.0000000000,117.0000000000,189.0000000000,62.0000000000
1717675262178,302.0000000000,273.0000000000,57.0000000000,116.0000000000,188.0000000000,61.0000000000
1717675262179,300.0000000000,271.0000000000,56.0000000000,115.0000000000,187.0000000000,60.0000000000
1717675262179,298.0000000000,270.0000000000,56.0000000000,115.0000000000,185.0000000000,60.0000000000
1717675262196,295.0000000000,268.0000000000,56.0000000000,114.0000000000,184.0000000000,60.0000000000
1717675262197,294.0000000000,265.0000000000,56.0000000000,113.0000000000,184.0000000000,60.0000000000
1717675262197,292.0000000000,263.0000000000,56.0000000000,152.0000000000,182.0000000000,59.0000000000
