timestamp,Channel 1,Channel 2,Channel 3,Channel 4,Channel 5,Channel 6
1717675224540,25.0000000000,0.0000000000,1.0000000000,124.0000000000,81.0000000000,0.0000000000
1717675224542,25.0000000000,0.0000000000,1.0000000000,124.0000000000,80.0000000000,0.0000000000
1717675224542,25.0000000000,0.0000000000,0.0000000000,123.0000000000,79.0000000000,0.0000000000
1717675224542,25.0000000000,0.0000000000,1.0000000000,123.0000000000,79.0000000000,0.0000000000
1717675224543,25.0000000000,0.0000000000,1.0000000000,122.0000000000,79.0000000000,0.0000000000
1717675224543,25.0000000000,0.0000000000,1.0000000000,121.0000000000,79.0000000000,0.0000000000
1717675224543,24.0000000000,0.0000000000,1.0000000000,121.0000000000,79.0000000000,0.0000000000
1717675224543,24.0000000000,0.0000000000,1.0000000000,120.0000000000,78.0000000000,0.0000000000
1717675224544,24.0000000000,0.0000000000,1.0000000000,120.0000000000,78.0000000000,0.0000000000
1717675224544,24.0000000000,0.0000000000,1.0000000000,119.0000000000,78.0000000000,0.0000000000
1717675224544,24.0000000000,0.0000000000,1.0000000000,119.0000000000,77.0000000000,0.0000000000
1717675224544,24.0000000000,0.0000000000,1.0000000000,118.0000000000,76.0000000000,0.0000000000
1717675224544,24.0000000000,0.0000000000,0.0000000000,118.0000000000,76.0000000000,0.0000000000
1717675224545,24.0000000000,0.0000000000,1.0000000000,117.0000000000,76.0000000000,0.0000000000
1717675224545,24.0000000000,0.0000000000,1.0000000000,116.0000000000,75.0000000000,0.0000000000
1717675224545,24.0000000000,0.0000000000,1.0000000000,115.0000000000,75.0000000000,0.0000000000
1717675224546,23.0000000000,0.0000000000,1.0000000000,115.0000000000,75.0000000000,0.0000000000
1717675224546,23.0000000000,0.0000000000,1.0000000000,115.0000000000,75.0000000000,0.0000000000
1717675224546,23.0000000000,0.0000000000,1.0000000000,114.0000000000,74.0000000000,0.0000000000
1717675224547,23.0000000000,0.0000000000,1.0000000000,113.0000000000,74.0000000000,0.0000000000
1717675224548,23.0000000000,0.0000000000,1.0000000000,163.0000000000,73.0000000000,0.0000000000
1717675224548,23.0000000000,0.0000000000,0.0000000000,161.0000000000,73.0000000000,0.0000000000
1717675224548,23.0000000000,0.0000000000,1.0000000000,159.0000000000,72.0000000000,0.0000000000
1717675224548,22.0000000000,0.0000000000,1.0000000000,159.0000000000,71.0000000000,0.0000000000
1717675224549,23.0000000000,0.0000000000,1.0000000000,158.0000000000,71.0000000000,0.0000000000
1717675224549,22.0000000000,0.0000000000,1.0000000000,157.0000000000,71.0000000000,0.0000000000
1717675224549,22.0000000000,0.0000000000,1.0000000000,156.0000000000,71.0000000000,0.0000000000
1717675224550,22.0000000000,0.0000000000,1.0000000000,156.0000000000,71.0000000000,0.0000000000
1717675224550,22.0000000000,0.0000000000,1.0000000000,155.0000000000,71.0000000000,0.0000000000
1717675224550,22.0000000000,0.0000000000,1.0000000000,155.0000000000,71.0000000000,0.0000000000
1717675224550,21.0000000000,0.0000000000,1.0000000000,153.0000000000,71.0000000000,0.0000000000
1717675224551,22.0000000000,0.0000000000,1.0000000000,152.0000000000,70.0000000000,0.0000000000
1717675224551,21.0000000000,0.0000000000,1.0000000000,152.0000000000,70.0000000000,0.0000000000
1717675224551,21.0000000000,0.0000000000,1.0000000000,151.0000000000,70.0000000000,0.0000000000
1717675224581,22.0000000000,0.0000000000,1.0000000000,151.0000000000,68.0000000000,0.0000000000
1717675224581,21.0000000000,0.0000000000,1.0000000000,149.0000000000,68.0000000000,0.0000000000
1717675224582,20.0000000000,0.0000000000,0.0000000000,148.0000000000,68.0000000000,0.0000000000
1717675224582,20.0000000000,0.0000000000,1.0000000000,147.0000000000,68.0000000000,0.0000000000
1717675224582,20.0000000000,0.0000000000,1.0000000000,147.0000000000,67.0000000000,0.0000000000
1717675224582,20.0000000000,0.0000000000,0.0000000000,147.0000000000,67.0000000000,0.0000000000
1717675224582,20.0000000000,0.0000000000,1.0000000000,146.0000000000,67.0000000000,0.0000000000
1717675224582,20.0000000000,0.0000000000,1.0000000000,145.0000000000,67.0000000000,0.0000000000
1717675224582,19.0000000000,0.0000000000,1.0000000000,144.0000000000,66.0000000000,0.0000000000
1717675224582,20.0000000000,0.0000000000,1.0000000000,143.0000000000,66.0000000000,0.0000000000
1717675224582,19.0000000000,0.0000000000,1.0000000000,142.0000000000,66.0000000000,0.0000000000
1717675224582,20.0000000000,0.0000000000,1.0000000000,142.0000000000,66.0000000000,0.0000000000
1717675224582,19.0000000000,0.0000000000,1.0000000000,141.0000000000,65.0000000000,0.0000000000
1717675224583,19.0000000000,0.0000000000,1.0000000000,140.0000000000,64.0000000000,0.0000000000
1717675224583,19.0000000000,0.0000000000,0.0000000000,140.0000000000,65.0000000000,0.0000000000
1717675224583,19.0000000000,0.0000000000,1.0000000000,140.0000000000,64.0000000000,0.0000000000
1717675224583,19.0000000000,0.0000000000,0.0000000000,139.0000000000,63.0000000000,0.0000000000
1717675224583,19.0000000000,0.0000000000,1.0000000000,138.0000000000,63.0000000000,0.0000000000
1717675224583,19.0000000000,0.0000000000,1.0000000000,137.0000000000,63.0000000000,0.0000000000
1717675224583,19.0000000000,0.0000000000,1.0000000000,136.0000000000,63.0000000000,0.0000000000
1717675224583,19.0000000000,0.0000000000,0.0000000000,135.0000000000,63.0000000000,0.0000000000
1717675224583,19.0000000000,0.0000000000,1.0000000000,135.0000000000,62.0000000000,0.0000000000
1717675224583,19.0000000000,0.0000000000,1.0000000000,135.0000000000,62.0000000000,0.0000000000
1717675224611,19.0000000000,0.0000000000,1.0000000000,134.0000000000,62.0000000000,0.0000000000
1717675224612,19.0000000000,0.0000000000,0.0000000000,133.0000000000,62.0000000000,0.0000000000
1717675224612,18.0000000000,0.0000000000,1.0000000000,132.0000000000,62.0000000000,0.0000000000
1717675224612,19.0000000000,0.0000000000,1.0000000000,132.0000000000,62.0000000000,0.0000000000
1717675224612,17.0000000000,0.0000000000,0.0000000000,131.0000000000,61.0000000000,0.0000000000
1717675224612,18.0000000000,0.0000000000,0.0000000000,131.0000000000,61.0000000000,0.0000000000
1717675224612,18.0000000000,0.0000000000,1.0000000000,130.0000000000,60.0000000000,0.0000000000
1717675224613,18.0000000000,0.0000000000,1.0000000000,129.0000000000,60.0000000000,0.0000000000
1717675224613,17.0000000000,0.0000000000,0.0000000000,129.0000000000,60.0000000000,0.0000000000
1717675224613,18.0000000000,0.0000000000,1.0000000000,128.0000000000,60.0000000000,0.0000000000
1717675224613,17.0000000000,0.0000000000,1.0000000000,127.0000000000,59.0000000000,0.0000000000
1717675224613,17.0000000000,0.0000000000,1.0000000000,127.0000000000,59.0000000000,0.0000000000
1717675224613,17.0000000000,0.0000000000,1.0000000000,127.0000000000,59.0000000000,0.0000000000
1717675224613,17.0000000000,0.0000000000,1.0000000000,126.0000000000,59.0000000000,0.0000000000
1717675224613,17.0000000000,0.0000000000,0.0000000000,125.0000000000,57.0000000000,0.0000000000
1717675224613,17.0000000000,0.0000000000,1.0000000000,125.0000000000,59.0000000000,0.0000000000
1717675224614,17.0000000000,0.0000000000,1.0000000000,124.0000000000,57.0000000000,0.0000000000
1717675224614,17.0000000000,0.0000000000,0.0000000000,124.0000000000,57.0000000000,0.0000000000
1717675224614,17.0000000000,0.0000000000,1.0000000000,123.0000000000,57.0000000000,0.0000000000
1717675224614,17.0000000000,0.0000000000,1.0000000000,123.0000000000,56.0000000000,0.0000000000
1717675224635,17.0000000000,0.0000000000,1.0000000000,121.0000000000,57.0000000000,0.0000000000
1717675224636,17.0000000000,0.0000000000,0.0000000000,121.0000000000,56.0000000000,0.0000000000
1717675224636,17.0000000000,0.0000000000,1.0000000000,120.0000000000,56.0000000000,0.0000000000
1717675224636,17.0000000000,0.0000000000,0.0000000000,120.0000000000,56.0000000000,0.0000000000
1717675224636,16.0000000000,0.0000000000,1.0000000000,120.0000000000,56.0000000000,0.0000000000
1717675224636,16.0000000000,0.0000000000,0.0000000000,119.0000000000,56.0000000000,0.0000000000
1717675224636,16.0000000000,0.0000000000,1.0000000000,119.0000000000,55.0000000000,0.0000000000
1717675224637,16.0000000000,0.0000000000,1.0000000000,118.0000000000,55.0000000000,0.0000000000
1717675224637,15.0000000000,0.0000000000,1.0000000000,117.0000000000,55.0000000000,0.0000000000
1717675224637,16.0000000000,0.0000000000,1.0000000000,116.0000000000,55.0000000000,0.0000000000
1717675224637,15.0000000000,0.0000000000,1.0000000000,116.0000000000,55.0000000000,0.0000000000
1717675224637,16.0000000000,0.0000000000,1.0000000000,115.0000000000,54.0000000000,0.0000000000
1717675224637,15.0000000000,0.0000000000,1.0000000000,115.0000000000,54.0000000000,0.0000000000
1717675224638,15.0000000000,0.0000000000,1.0000000000,115.0000000000,54.0000000000,0.0000000000
1717675224639,15.0000000000,0.0000000000,1.0000000000,113.0000000000,53.0000000000,0.0000000000
1717675224639,15.0000000000,0.0000000000,1.0000000000,113.0000000000,53.0000000000,0.0000000000
1717675224640,15.0000000000,0.0000000000,0.0000000000,112.0000000000,52.0000000000,0.0000000000
1717675224655,15.0000000000,0.0000000000,1.0000000000,112.0000000000,52.0000000000,0.0000000000
1717675224656,15.0000000000,0.0000000000,1.0000000000,112.0000000000,52.0000000000,0.0000000000
1717675224656,15.0000000000,0.0000000000,1.0000000000,111.0000000000,52.0000000000,0.0000000000
1717675224656,15.0000000000,0.0000000000,1.0000000000,111.0000000000,51.0000000000,0.0000000000
1717675224656,15.0000000000,0.0000000000,1.0000000000,110.0000000000,51.0000000000,0.0000000000
1717675224656,15.0000000000,0.0000000000,1.0000000000,110.0000000000,51.0000000000,0.0000000000
1717675224657,15.0000000000,0.0000000000,1.0000000000,109.0000000000,51.0000000000,0.0000000000
1717675224657,15.0000000000,0.0000000000,1.0000000000,108.0000000000,51.0000000000,0.0000000000
1717675224657,15.0000000000,0.0000000000,1.0000000000,108.0000000000,51.0000000000,0.0000000000
1717675224657,15.0000000000,0.0000000000,1.0000000000,108.0000000000,50.0000000000,0.0000000000
1717675224657,15.0000000000,0.0000000000,1.0000000000,108.0000000000,50.0000000000,0.0000000000
1717675224657,15.0000000000,0.0000000000,1.0000000000,107.0000000000,50.0000000000,0.0000000000
1717675224658,14.0000000000,0.0000000000,1.0000000000,107.0000000000,49.0000000000,0.0000000000
1717675224658,14.0000000000,0.0000000000,0.0000000000,105.0000000000,50.0000000000,0.0000000000
1717675224674,14.0000000000,0.0000000000,1.0000000000,105.0000000000,49.0000000000,0.0000000000
1717675224675,14.0000000000,0.0000000000,0.0000000000,104.0000000000,49.0000000000,0.0000000000
1717675224675,14.0000000000,0.0000000000,1.0000000000,104.0000000000,48.0000000000,0.0000000000
1717675224675,14.0000000000,0.0000000000,1.0000000000,103.0000000000,49.0000000000,0.0000000000
1717675224675,14.0000000000,0.0000000000,1.0000000000,103.0000000000,48.0000000000,0.0000000000
1717675224675,14.0000000000,0.0000000000,1.0000000000,103.0000000000,48.0000000000,0.0000000000
1717675224675,14.0000000000,0.0000000000,1.0000000000,103.0000000000,48.0000000000,0.0000000000
1717675224676,14.0000000000,0.0000000000,1.0000000000,111.0000000000,48.0000000000,0.0000000000
1717675224676,14.0000000000,0.0000000000,0.0000000000,110.0000000000,48.0000000000,0.0000000000
1717675224676,14.0000000000,0.0000000000,0.0000000000,110.0000000000,47.0000000000,0.0000000000
1717675224676,13.0000000000,0.0000000000,0.0000000000,109.0000000000,48.0000000000,0.0000000000
1717675224691,14.0000000000,0.0000000000,1.0000000000,108.0000000000,47.0000000000,0.0000000000
1717675224691,13.0000000000,0.0000000000,0.0000000000,108.0000000000,47.0000000000,0.0000000000
1717675224691,14.0000000000,0.0000000000,1.0000000000,108.0000000000,47.0000000000,0.0000000000
1717675224691,13.0000000000,0.0000000000,0.0000000000,107.0000000000,46.0000000000,0.0000000000
1717675224691,14.0000000000,0.0000000000,1.0000000000,107.0000000000,46.0000000000,0.0000000000
1717675224691,13.0000000000,0.0000000000,1.0000000000,105.0000000000,46.0000000000,0.0000000000
1717675224692,13.0000000000,0.0000000000,1.0000000000,105.0000000000,46.0000000000,0.0000000000
1717675224692,12.0000000000,0.0000000000,1.0000000000,105.0000000000,45.0000000000,0.0000000000
1717675224692,13.0000000000,0.0000000000,0.0000000000,103.0000000000,46.0000000000,0.0000000000
1717675224692,12.0000000000,0.0000000000,1.0000000000,103.0000000000,45.0000000000,0.0000000000
1717675224692,13.0000000000,0.0000000000,0.0000000000,103.0000000000,45.0000000000,0.0000000000
1717675224710,13.0000000000,0.0000000000,0.0000000000,103.0000000000,44.0000000000,0.0000000000
1717675224711,13.0000000000,0.0000000000,0.0000000000,102.0000000000,45.0000000000,0.0000000000
1717675224711,13.0000000000,0.0000000000,0.0000000000,102.0000000000,44.0000000000,0.0000000000
1717675224712,12.0000000000,0.0000000000,0.0000000000,102.0000000000,109.0000000000,0.0000000000
1717675224712,12.0000000000,0.0000000000,1.0000000000,100.0000000000,107.0000000000,0.0000000000
1717675224712,13.0000000000,0.0000000000,0.0000000000,99.0000000000,106.0000000000,0.0000000000
1717675224712,12.0000000000,0.0000000000,0.0000000000,99.0000000000,105.0000000000,0.0000000000
1717675224712,12.0000000000,0.0000000000,1.0000000000,99.0000000000,104.0000000000,0.0000000000
1717675224713,12.0000000000,0.0000000000,1.0000000000,99.0000000000,103.0000000000,1.0000000000
1717675224713,12.0000000000,0.0000000000,1.0000000000,99.0000000000,103.0000000000,0.0000000000
1717675224713,12.0000000000,0.0000000000,1.0000000000,98.0000000000,103.0000000000,0.0000000000
1717675224714,12.0000000000,0.0000000000,1.0000000000,97.0000000000,103.0000000000,1.0000000000
1717675224715,12.0000000000,0.0000000000,1.0000000000,97.0000000000,102.0000000000,0.0000000000
1717675224715,13.0000000000,0.0000000000,1.0000000000,96.0000000000,102.0000000000,0.0000000000
1717675224715,13.0000000000,0.0000000000,1.0000000000,96.0000000000,102.0000000000,0.0000000000
1717675224715,14.0000000000,0.0000000000,1.0000000000,96.0000000000,100.0000000000,0.0000000000
1717675224716,13.0000000000,0.0000000000,1.0000000000,95.0000000000,100.0000000000,0.0000000000
1717675224752,13.0000000000,0.0000000000,1.0000000000,95.0000000000,99.0000000000,0.0000000000
1717675224752,13.0000000000,0.0000000000,1.0000000000,95.0000000000,99.0000000000,0.0000000000
1717675224753,12.0000000000,0.0000000000,1.0000000000,94.0000000000,99.0000000000,0.0000000000
1717675224753,13.0000000000,0.0000000000,1.0000000000,93.0000000000,98.0000000000,0.0000000000
1717675224753,12.0000000000,0.0000000000,1.0000000000,94.0000000000,98.0000000000,0.0000000000
1717675224754,12.0000000000,0.0000000000,1.0000000000,93.0000000000,97.0000000000,0.0000000000
1717675224754,12.0000000000,0.0000000000,1.0000000000,93.0000000000,96.0000000000,0.0000000000
1717675224754,12.0000000000,0.0000000000,1.0000000000,92.0000000000,96.0000000000,0.0000000000
1717675224754,12.0000000000,0.0000000000,1.0000000000,92.0000000000,96.0000000000,1.0000000000
1717675224754,12.0000000000,0.0000000000,1.0000000000,92.0000000000,95.0000000000,0.0000000000
1717675224754,12.0000000000,0.0000000000,1.0000000000,91.0000000000,95.0000000000,0.0000000000
1717675224755,12.0000000000,0.0000000000,1.0000000000,91.0000000000,94.0000000000,0.0000000000
1717675224755,12.0000000000,0.0000000000,1.0000000000,90.0000000000,95.0000000000,0.0000000000
1717675224755,12.0000000000,0.0000000000,1.0000000000,90.0000000000,94.0000000000,0.0000000000
1717675224755,12.0000000000,0.0000000000,0.0000000000,89.0000000000,93.0000000000,0.0000000000
1717675224755,12.0000000000,0.0000000000,1.0000000000,89.0000000000,93.0000000000,0.0000000000
1717675224756,12.0000000000,0.0000000000,1.0000000000,88.0000000000,92.0000000000,0.0000000000
1717675224756,12.0000000000,0.0000000000,1.0000000000,88.0000000000,92.0000000000,0.0000000000
1717675224756,12.0000000000,0.0000000000,0.0000000000,88.0000000000,92.0000000000,0.0000000000
1717675224757,12.0000000000,0.0000000000,1.0000000000,88.0000000000,92.0000000000,0.0000000000
1717675224757,11.0000000000,0.0000000000,1.0000000000,88.0000000000,91.0000000000,0.0000000000
1717675224757,12.0000000000,0.0000000000,1.0000000000,88.0000000000,91.0000000000,0.0000000000
1717675224757,12.0000000000,0.0000000000,1.0000000000,87.0000000000,89.0000000000,0.0000000000
1717675224757,11.0000000000,0.0000000000,1.0000000000,87.0000000000,89.0000000000,0.0000000000
1717675224758,11.0000000000,0.0000000000,1.0000000000,86.0000000000,89.0000000000,0.0000000000
1717675224758,12.0000000000,0.0000000000,1.0000000000,86.0000000000,89.0000000000,0.0000000000
1717675224758,12.0000000000,0.0000000000,0.0000000000,86.0000000000,88.0000000000,0.0000000000
1717675224758,11.0000000000,0.0000000000,0.0000000000,85.0000000000,88.0000000000,0.0000000000
1717675224758,11.0000000000,0.0000000000,1.0000000000,84.0000000000,88.0000000000,0.0000000000
1717675224758,11.0000000000,0.0000000000,1.0000000000,84.0000000000,87.0000000000,0.0000000000
1717675224772,11.0000000000,0.0000000000,1.0000000000,84.0000000000,87.0000000000,0.0000000000
1717675224773,11.0000000000,0.0000000000,0.0000000000,83.0000000000,87.0000000000,0.0000000000
1717675224773,11.0000000000,0.0000000000,0.0000000000,83.0000000000,87.0000000000,0.0000000000
1717675224773,11.0000000000,0.0000000000,1.0000000000,83.0000000000,86.0000000000,0.0000000000
1717675224773,11.0000000000,0.0000000000,1.0000000000,83.0000000000,86.0000000000,0.0000000000
1717675224773,11.0000000000,0.0000000000,1.0000000000,82.0000000000,85.0000000000,0.0000000000
1717675224773,10.0000000000,0.0000000000,1.0000000000,81.0000000000,84.0000000000,0.0000000000
1717675224773,11.0000000000,0.0000000000,1.0000000000,82.0000000000,84.0000000000,0.0000000000
1717675224773,11.0000000000,0.0000000000,0.0000000000,82.0000000000,84.0000000000,0.0000000000
1717675224774,11.0000000000,0.0000000000,1.0000000000,81.0000000000,83.0000000000,0.0000000000
1717675224774,10.0000000000,0.0000000000,0.0000000000,81.0000000000,83.0000000000,0.0000000000
1717675224774,11.0000000000,0.0000000000,0.0000000000,80.0000000000,83.0000000000,0.0000000000
1717675224774,11.0000000000,0.0000000000,1.0000000000,79.0000000000,82.0000000000,0.0000000000
1717675224788,11.0000000000,0.0000000000,1.0000000000,79.0000000000,82.0000000000,0.0000000000
1717675224789,10.0000000000,0.0000000000,0.0000000000,79.0000000000,82.0000000000,0.0000000000
1717675224789,11.0000000000,0.0000000000,0.0000000000,79.0000000000,81.0000000000,0.0000000000
1717675224789,11.0000000000,0.0000000000,1.0000000000,79.0000000000,80.0000000000,0.0000000000
1717675224789,10.0000000000,0.0000000000,0.0000000000,78.0000000000,81.0000000000,0.0000000000
1717675224789,10.0000000000,0.0000000000,1.0000000000,78.0000000000,79.0000000000,0.0000000000
1717675224789,9.0000000000,0.0000000000,0.0000000000,78.0000000000,79.0000000000,0.0000000000
1717675224790,10.0000000000,0.0000000000,1.0000000000,77.0000000000,79.0000000000,0.0000000000
1717675224790,10.0000000000,0.0000000000,1.0000000000,77.0000000000,79.0000000000,0.0000000000
1717675224790,9.0000000000,0.0000000000,1.0000000000,77.0000000000,79.0000000000,0.0000000000
1717675224790,9.0000000000,0.0000000000,1.0000000000,76.0000000000,78.0000000000,0.0000000000
1717675224790,10.0000000000,0.0000000000,0.0000000000,76.0000000000,79.0000000000,0.0000000000
1717675224804,9.0000000000,0.0000000000,1.0000000000,76.0000000000,78.0000000000,0.0000000000
1717675224804,9.0000000000,0.0000000000,1.0000000000,76.0000000000,77.0000000000,0.0000000000
1717675224804,9.0000000000,0.0000000000,1.0000000000,76.0000000000,77.0000000000,0.0000000000
1717675224804,9.0000000000,0.0000000000,0.0000000000,75.0000000000,76.0000000000,0.0000000000
1717675224805,9.0000000000,0.0000000000,1.0000000000,75.0000000000,76.0000000000,0.0000000000
1717675224805,9.0000000000,0.0000000000,0.0000000000,75.0000000000,76.0000000000,0.0000000000
1717675224805,9.0000000000,0.0000000000,1.0000000000,75.0000000000,76.0000000000,0.0000000000
1717675224805,9.0000000000,0.0000000000,1.0000000000,75.0000000000,76.0000000000,0.0000000000
1717675224805,9.0000000000,0.0000000000,1.0000000000,74.0000000000,76.0000000000,0.0000000000
1717675224805,9.0000000000,0.0000000000,1.0000000000,73.0000000000,75.0000000000,0.0000000000
1717675224805,9.0000000000,0.0000000000,1.0000000000,73.0000000000,75.0000000000,0.0000000000
1717675224805,9.0000000000,0.0000000000,1.0000000000,73.0000000000,75.0000000000,0.0000000000
1717675224805,9.0000000000,0.0000000000,1.0000000000,73.0000000000,74.0000000000,0.0000000000
1717675224820,9.0000000000,0.0000000000,1.0000000000,72.0000000000,73.0000000000,0.0000000000
1717675224820,9.0000000000,0.0000000000,1.0000000000,71.0000000000,73.0000000000,0.0000000000
1717675224820,9.0000000000,0.0000000000,1.0000000000,71.0000000000,73.0000000000,0.0000000000
1717675224820,9.0000000000,0.0000000000,1.0000000000,71.0000000000,73.0000000000,0.0000000000
1717675224820,9.0000000000,0.0000000000,1.0000000000,71.0000000000,87.0000000000,0.0000000000
1717675224821,9.0000000000,0.0000000000,1.0000000000,71.0000000000,86.0000000000,0.0000000000
1717675224821,9.0000000000,0.0000000000,1.0000000000,71.0000000000,86.0000000000,0.0000000000
1717675224821,8.0000000000,0.0000000000,1.0000000000,71.0000000000,85.0000000000,0.0000000000
1717675224821,9.0000000000,0.0000000000,0.0000000000,71.0000000000,85.0000000000,0.0000000000
1717675224821,7.0000000000,0.0000000000,1.0000000000,71.0000000000,84.0000000000,0.0000000000
1717675224821,8.0000000000,0.0000000000,1.0000000000,70.0000000000,83.0000000000,0.0000000000
1717675224821,9.0000000000,0.0000000000,1.0000000000,69.0000000000,83.0000000000,0.0000000000
1717675224835,7.0000000000,0.0000000000,1.0000000000,70.0000000000,83.0000000000,0.0000000000
1717675224836,7.0000000000,0.0000000000,1.0000000000,70.0000000000,83.0000000000,0.0000000000
1717675224837,7.0000000000,0.0000000000,0.0000000000,68.0000000000,83.0000000000,0.0000000000
1717675224837,8.0000000000,0.0000000000,1.0000000000,69.0000000000,82.0000000000,0.0000000000
1717675224837,8.0000000000,0.0000000000,1.0000000000,68.0000000000,81.0000000000,2.0000000000
1717675224837,8.0000000000,0.0000000000,0.0000000000,67.0000000000,81.0000000000,46.0000000000
1717675224837,28.0000000000,0.0000000000,1.0000000000,67.0000000000,81.0000000000,51.0000000000
1717675224837,29.0000000000,0.0000000000,1.0000000000,67.0000000000,81.0000000000,50.0000000000
1717675224837,28.0000000000,0.0000000000,1.0000000000,67.0000000000,79.0000000000,49.0000000000
1717675224837,28.0000000000,0.0000000000,0.0000000000,67.0000000000,79.0000000000,49.0000000000
1717675224837,28.0000000000,0.0000000000,1.0000000000,67.0000000000,79.0000000000,49.0000000000
1717675224838,28.0000000000,0.0000000000,6.0000000000,66.0000000000,79.0000000000,48.0000000000
1717675224853,27.0000000000,0.0000000000,7.0000000000,67.0000000000,78.0000000000,48.0000000000
1717675224854,28.0000000000,0.0000000000,7.0000000000,66.0000000000,79.0000000000,48.0000000000
1717675224854,27.0000000000,0.0000000000,7.0000000000,65.0000000000,78.0000000000,47.0000000000
1717675224854,27.0000000000,0.0000000000,7.0000000000,65.0000000000,77.0000000000,47.0000000000
1717675224854,27.0000000000,0.0000000000,6.0000000000,65.0000000000,78.0000000000,47.0000000000
1717675224855,27.0000000000,0.0000000000,7.0000000000,65.0000000000,76.0000000000,47.0000000000
1717675224855,27.0000000000,0.0000000000,6.0000000000,65.0000000000,76.0000000000,47.0000000000
1717675224855,27.0000000000,0.0000000000,7.0000000000,64.0000000000,76.0000000000,46.0000000000
1717675224855,27.0000000000,0.0000000000,7.0000000000,63.0000000000,76.0000000000,46.0000000000
1717675224855,25.0000000000,0.0000000000,7.0000000000,63.0000000000,93.0000000000,46.0000000000
1717675224855,27.0000000000,0.0000000000,6.0000000000,63.0000000000,92.0000000000,46.0000000000
1717675224856,25.0000000000,0.0000000000,6.0000000000,63.0000000000,91.0000000000,45.0000000000
1717675224881,26.0000000000,0.0000000000,6.0000000000,63.0000000000,91.0000000000,45.0000000000
1717675224882,25.0000000000,0.0000000000,6.0000000000,63.0000000000,91.0000000000,45.0000000000
1717675224882,25.0000000000,0.0000000000,6.0000000000,62.0000000000,90.0000000000,44.0000000000
1717675224882,25.0000000000,0.0000000000,6.0000000000,62.0000000000,89.0000000000,44.0000000000
1717675224882,25.0000000000,0.0000000000,6.0000000000,62.0000000000,121.0000000000,44.0000000000
1717675224882,24.0000000000,0.0000000000,6.0000000000,62.0000000000,120.0000000000,44.0000000000
1717675224882,25.0000000000,0.0000000000,6.0000000000,61.0000000000,120.0000000000,44.0000000000
1717675224882,25.0000000000,0.0000000000,6.0000000000,60.0000000000,119.0000000000,44.0000000000
1717675224883,24.0000000000,0.0000000000,6.0000000000,61.0000000000,118.0000000000,43.0000000000
1717675224883,24.0000000000,0.0000000000,8.0000000000,61.0000000000,117.0000000000,43.0000000000
1717675224883,24.0000000000,0.0000000000,8.0000000000,60.0000000000,116.0000000000,43.0000000000
1717675224883,24.0000000000,0.0000000000,7.0000000000,60.0000000000,115.0000000000,43.0000000000
1717675224883,24.0000000000,0.0000000000,7.0000000000,60.0000000000,115.0000000000,42.0000000000
1717675224883,24.0000000000,0.0000000000,7.0000000000,60.0000000000,115.0000000000,41.0000000000
1717675224883,24.0000000000,0.0000000000,7.0000000000,60.0000000000,114.0000000000,41.0000000000
1717675224884,24.0000000000,0.0000000000,7.0000000000,61.0000000000,113.0000000000,41.0000000000
1717675224884,24.0000000000,0.0000000000,8.0000000000,62.0000000000,112.0000000000,41.0000000000
1717675224884,24.0000000000,0.0000000000,7.0000000000,62.0000000000,112.0000000000,41.0000000000
1717675224884,24.0000000000,0.0000000000,7.0000000000,61.0000000000,112.0000000000,41.0000000000
1717675224900,25.0000000000,0.0000000000,7.0000000000,62.0000000000,111.0000000000,40.0000000000
1717675224900,63.0000000000,0.0000000000,11.0000000000,61.0000000000,110.0000000000,39.0000000000
1717675224900,63.0000000000,0.0000000000,12.0000000000,60.0000000000,110.0000000000,39.0000000000
1717675224900,62.0000000000,0.0000000000,11.0000000000,60.0000000000,109.0000000000,39.0000000000
1717675224901,62.0000000000,0.0000000000,11.0000000000,60.0000000000,108.0000000000,39.0000000000
1717675224901,62.0000000000,0.0000000000,11.0000000000,60.0000000000,108.0000000000,39.0000000000
1717675224901,61.0000000000,0.0000000000,11.0000000000,60.0000000000,107.0000000000,39.0000000000
1717675224901,60.0000000000,0.0000000000,15.0000000000,59.0000000000,107.0000000000,39.0000000000
1717675224901,60.0000000000,6.0000000000,23.0000000000,59.0000000000,106.0000000000,39.0000000000
1717675224901,59.0000000000,6.0000000000,23.0000000000,58.0000000000,105.0000000000,39.0000000000
1717675224916,60.0000000000,6.0000000000,22.0000000000,58.0000000000,105.0000000000,38.0000000000
1717675224917,59.0000000000,6.0000000000,22.0000000000,58.0000000000,104.0000000000,38.0000000000
1717675224917,59.0000000000,5.0000000000,22.0000000000,57.0000000000,103.0000000000,38.0000000000
1717675224917,57.0000000000,6.0000000000,22.0000000000,57.0000000000,103.0000000000,38.0000000000
1717675224917,57.0000000000,6.0000000000,22.0000000000,57.0000000000,103.0000000000,37.0000000000
1717675224917,57.0000000000,5.0000000000,22.0000000000,56.0000000000,103.0000000000,38.0000000000
1717675224917,159.0000000000,6.0000000000,22.0000000000,57.0000000000,102.0000000000,38.0000000000
1717675224917,265.0000000000,5.0000000000,22.0000000000,56.0000000000,102.0000000000,37.0000000000
1717675224918,369.0000000000,67.0000000000,21.0000000000,56.0000000000,100.0000000000,36.0000000000
1717675224918,364.0000000000,67.0000000000,20.0000000000,56.0000000000,100.0000000000,36.0000000000
1717675224935,359.0000000000,66.0000000000,21.0000000000,56.0000000000,99.0000000000,36.0000000000
1717675224936,356.0000000000,65.0000000000,20.0000000000,55.0000000000,127.0000000000,35.0000000000
1717675224936,354.0000000000,65.0000000000,20.0000000000,55.0000000000,126.0000000000,35.0000000000
1717675224936,351.0000000000,64.0000000000,28.0000000000,55.0000000000,124.0000000000,35.0000000000
1717675224937,348.0000000000,63.0000000000,30.0000000000,55.0000000000,124.0000000000,35.0000000000
1717675224937,345.0000000000,63.0000000000,29.0000000000,54.0000000000,123.0000000000,35.0000000000
1717675224937,343.0000000000,63.0000000000,29.0000000000,54.0000000000,123.0000000000,35.0000000000
1717675224937,340.0000000000,63.0000000000,29.0000000000,54.0000000000,131.0000000000,35.0000000000
1717675224937,338.0000000000,62.0000000000,29.0000000000,53.0000000000,188.0000000000,35.0000000000
1717675224937,335.0000000000,62.0000000000,28.0000000000,54.0000000000,190.0000000000,34.0000000000
1717675224938,333.0000000000,61.0000000000,28.0000000000,53.0000000000,189.0000000000,34.0000000000
1717675224954,331.0000000000,61.0000000000,28.0000000000,52.0000000000,188.0000000000,34.0000000000
1717675224955,327.0000000000,60.0000000000,28.0000000000,52.0000000000,186.0000000000,34.0000000000
1717675224955,326.0000000000,60.0000000000,28.0000000000,52.0000000000,185.0000000000,33.0000000000
1717675224955,323.0000000000,60.0000000000,28.0000000000,51.0000000000,184.0000000000,33.0000000000
1717675224955,321.0000000000,60.0000000000,27.0000000000,51.0000000000,182.0000000000,33.0000000000
1717675224956,319.0000000000,59.0000000000,27.0000000000,51.0000000000,180.0000000000,33.0000000000
1717675224956,316.0000000000,59.0000000000,27.0000000000,51.0000000000,180.0000000000,32.0000000000
1717675224956,315.0000000000,57.0000000000,27.0000000000,51.0000000000,179.0000000000,42.0000000000
1717675224956,312.0000000000,57.0000000000,27.0000000000,51.0000000000,177.0000000000,51.0000000000
1717675224956,311.0000000000,57.0000000000,26.0000000000,51.0000000000,177.0000000000,49.0000000000
1717675224957,308.0000000000,57.0000000000,25.0000000000,50.0000000000,176.0000000000,49.0000000000
1717675224957,307.0000000000,56.0000000000,25.0000000000,50.0000000000,175.0000000000,49.0000000000
1717675224971,304.0000000000,56.0000000000,25.0000000000,49.0000000000,179.0000000000,49.0000000000
1717675224972,302.0000000000,56.0000000000,25.0000000000,49.0000000000,177.0000000000,49.0000000000
1717675224972,300.0000000000,56.0000000000,25.0000000000,49.0000000000,176.0000000000,48.0000000000
1717675224972,299.0000000000,56.0000000000,25.0000000000,49.0000000000,175.0000000000,48.0000000000
1717675224972,295.0000000000,55.0000000000,25.0000000000,49.0000000000,174.0000000000,47.0000000000
1717675224972,295.0000000000,55.0000000000,25.0000000000,49.0000000000,172.0000000000,49.0000000000
1717675224973,292.0000000000,54.0000000000,24.0000000000,48.0000000000,172.0000000000,50.0000000000
1717675224973,291.0000000000,54.0000000000,24.0000000000,65.0000000000,171.0000000000,49.0000000000
1717675224973,289.0000000000,53.0000000000,24.0000000000,67.0000000000,169.0000000000,49.0000000000
1717675224986,287.0000000000,53.0000000000,24.0000000000,66.0000000000,168.0000000000,48.0000000000
1717675224987,285.0000000000,52.0000000000,24.0000000000,66.0000000000,167.0000000000,48.0000000000
1717675224987,284.0000000000,52.0000000000,24.0000000000,65.0000000000,167.0000000000,48.0000000000
1717675224987,281.0000000000,52.0000000000,25.0000000000,65.0000000000,166.0000000000,48.0000000000
1717675224987,280.0000000000,51.0000000000,28.0000000000,65.0000000000,164.0000000000,48.0000000000
1717675224987,278.0000000000,51.0000000000,30.0000000000,63.0000000000,163.0000000000,47.0000000000
1717675224987,276.0000000000,51.0000000000,30.0000000000,63.0000000000,163.0000000000,47.0000000000
1717675225002,275.0000000000,51.0000000000,29.0000000000,63.0000000000,162.0000000000,47.0000000000
1717675225003,287.0000000000,51.0000000000,29.0000000000,63.0000000000,161.0000000000,46.0000000000
1717675225003,319.0000000000,51.0000000000,28.0000000000,62.0000000000,159.0000000000,46.0000000000
1717675225003,317.0000000000,50.0000000000,29.0000000000,62.0000000000,159.0000000000,46.0000000000
1717675225003,315.0000000000,135.0000000000,28.0000000000,62.0000000000,158.0000000000,46.0000000000
1717675225004,312.0000000000,134.0000000000,28.0000000000,61.0000000000,157.0000000000,46.0000000000
1717675225004,310.0000000000,132.0000000000,28.0000000000,61.0000000000,156.0000000000,45.0000000000
1717675225004,307.0000000000,131.0000000000,28.0000000000,60.0000000000,156.0000000000,44.0000000000
1717675225004,305.0000000000,129.0000000000,29.0000000000,60.0000000000,154.0000000000,44.0000000000
1717675225020,303.0000000000,127.0000000000,44.0000000000,60.0000000000,153.0000000000,44.0000000000
1717675225020,300.0000000000,127.0000000000,45.0000000000,59.0000000000,152.0000000000,44.0000000000
1717675225021,298.0000000000,127.0000000000,45.0000000000,59.0000000000,152.0000000000,43.0000000000
1717675225021,295.0000000000,126.0000000000,44.0000000000,59.0000000000,151.0000000000,43.0000000000
1717675225021,294.0000000000,125.0000000000,44.0000000000,57.0000000000,150.0000000000,43.0000000000
1717675225021,291.0000000000,124.0000000000,44.0000000000,57.0000000000,149.0000000000,43.0000000000
1717675225021,289.0000000000,124.0000000000,44.0000000000,57.0000000000,148.0000000000,42.0000000000
1717675225021,287.0000000000,123.0000000000,44.0000000000,57.0000000000,147.0000000000,41.0000000000
1717675225035,286.0000000000,121.0000000000,43.0000000000,57.0000000000,146.0000000000,41.0000000000
1717675225036,284.0000000000,121.0000000000,43.0000000000,56.0000000000,145.0000000000,41.0000000000
1717675225037,282.0000000000,120.0000000000,43.0000000000,56.0000000000,145.0000000000,40.0000000000
1717675225037,280.0000000000,120.0000000000,42.0000000000,56.0000000000,143.0000000000,41.0000000000
1717675225037,278.0000000000,119.0000000000,42.0000000000,56.0000000000,143.0000000000,40.0000000000
1717675225037,276.0000000000,118.0000000000,41.0000000000,56.0000000000,142.0000000000,39.0000000000
1717675225037,274.0000000000,117.0000000000,41.0000000000,55.0000000000,141.0000000000,39.0000000000
1717675225038,272.0000000000,116.0000000000,41.0000000000,54.0000000000,140.0000000000,39.0000000000
1717675225038,271.0000000000,115.0000000000,41.0000000000,55.0000000000,140.0000000000,48.0000000000
1717675225038,268.0000000000,115.0000000000,41.0000000000,54.0000000000,139.0000000000,48.0000000000
1717675225038,267.0000000000,114.0000000000,41.0000000000,56.0000000000,139.0000000000,48.0000000000
1717675225064,265.0000000000,113.0000000000,41.0000000000,55.0000000000,137.0000000000,48.0000000000
1717675225065,263.0000000000,113.0000000000,41.0000000000,55.0000000000,136.0000000000,47.0000000000
1717675225065,262.0000000000,112.0000000000,41.0000000000,54.0000000000,213.0000000000,47.0000000000
1717675225065,260.0000000000,112.0000000000,39.0000000000,54.0000000000,211.0000000000,59.0000000000
1717675225065,259.0000000000,111.0000000000,39.0000000000,54.0000000000,209.0000000000,57.0000000000
1717675225065,257.0000000000,110.0000000000,39.0000000000,52.0000000000,207.0000000000,58.0000000000
1717675225065,255.0000000000,110.0000000000,39.0000000000,53.0000000000,206.0000000000,57.0000000000
1717675225065,254.0000000000,109.0000000000,39.0000000000,52.0000000000,211.0000000000,56.0000000000
1717675225066,252.0000000000,108.0000000000,39.0000000000,52.0000000000,209.0000000000,56.0000000000
1717675225066,252.0000000000,107.0000000000,39.0000000000,54.0000000000,207.0000000000,56.0000000000
1717675225066,249.0000000000,107.0000000000,38.0000000000,54.0000000000,206.0000000000,56.0000000000
1717675225066,248.0000000000,105.0000000000,38.0000000000,53.0000000000,205.0000000000,55.0000000000
1717675225066,246.0000000000,105.0000000000,38.0000000000,53.0000000000,204.0000000000,55.0000000000
1717675225084,244.0000000000,104.0000000000,38.0000000000,52.0000000000,203.0000000000,55.0000000000
1717675225084,243.0000000000,103.0000000000,38.0000000000,52.0000000000,199.0000000000,54.0000000000
1717675225084,242.0000000000,103.0000000000,38.0000000000,51.0000000000,199.0000000000,54.0000000000
1717675225084,240.0000000000,103.0000000000,37.0000000000,51.0000000000,199.0000000000,53.0000000000
1717675225084,240.0000000000,102.0000000000,37.0000000000,51.0000000000,196.0000000000,53.0000000000
1717675225084,238.0000000000,101.0000000000,36.0000000000,51.0000000000,195.0000000000,52.0000000000
1717675225085,236.0000000000,100.0000000000,36.0000000000,50.0000000000,195.0000000000,52.0000000000
1717675225085,235.0000000000,100.0000000000,35.0000000000,51.0000000000,193.0000000000,52.0000000000
1717675225085,233.0000000000,99.0000000000,35.0000000000,50.0000000000,192.0000000000,51.0000000000
1717675225085,231.0000000000,99.0000000000,35.0000000000,49.0000000000,192.0000000000,51.0000000000
1717675225085,231.0000000000,98.0000000000,35.0000000000,49.0000000000,190.0000000000,51.0000000000
1717675225101,230.0000000000,98.0000000000,35.0000000000,49.0000000000,188.0000000000,51.0000000000
1717675225102,236.0000000000,97.0000000000,35.0000000000,49.0000000000,188.0000000000,50.0000000000
1717675225103,236.0000000000,96.0000000000,35.0000000000,49.0000000000,187.0000000000,50.0000000000
1717675225103,233.0000000000,96.0000000000,35.0000000000,48.0000000000,185.0000000000,49.0000000000
1717675225103,231.0000000000,96.0000000000,34.0000000000,48.0000000000,184.0000000000,49.0000000000
1717675225104,231.0000000000,95.0000000000,34.0000000000,48.0000000000,183.0000000000,49.0000000000
1717675225104,229.0000000000,97.0000000000,34.0000000000,48.0000000000,183.0000000000,49.0000000000
1717675225104,227.0000000000,96.0000000000,34.0000000000,47.0000000000,181.0000000000,48.0000000000
1717675225105,227.0000000000,95.0000000000,33.0000000000,101.0000000000,180.0000000000,48.0000000000
1717675225106,225.0000000000,95.0000000000,33.0000000000,99.0000000000,179.0000000000,48.0000000000
1717675225106,224.0000000000,94.0000000000,33.0000000000,99.0000000000,177.0000000000,48.0000000000
1717675225106,223.0000000000,94.0000000000,32.0000000000,99.0000000000,177.0000000000,47.0000000000
1717675225107,221.0000000000,92.0000000000,33.0000000000,97.0000000000,176.0000000000,47.0000000000
1717675225107,220.0000000000,93.0000000000,32.0000000000,97.0000000000,175.0000000000,47.0000000000
1717675225129,219.0000000000,92.0000000000,31.0000000000,96.0000000000,174.0000000000,47.0000000000
1717675225130,217.0000000000,92.0000000000,31.0000000000,96.0000000000,172.0000000000,46.0000000000
1717675225130,216.0000000000,91.0000000000,31.0000000000,95.0000000000,172.0000000000,46.0000000000
1717675225130,216.0000000000,91.0000000000,31.0000000000,95.0000000000,171.0000000000,46.0000000000
1717675225131,214.0000000000,89.0000000000,31.0000000000,94.0000000000,170.0000000000,45.0000000000
1717675225131,213.0000000000,89.0000000000,31.0000000000,93.0000000000,169.0000000000,45.0000000000
1717675225131,211.0000000000,89.0000000000,31.0000000000,92.0000000000,167.0000000000,45.0000000000
1717675225131,210.0000000000,88.0000000000,31.0000000000,92.0000000000,167.0000000000,45.0000000000
1717675225131,209.0000000000,88.0000000000,31.0000000000,92.0000000000,166.0000000000,44.0000000000
1717675225131,207.0000000000,87.0000000000,31.0000000000,91.0000000000,166.0000000000,44.0000000000
1717675225131,207.0000000000,87.0000000000,30.0000000000,91.0000000000,164.0000000000,44.0000000000
1717675225132,206.0000000000,87.0000000000,31.0000000000,89.0000000000,163.0000000000,43.0000000000
1717675225132,204.0000000000,86.0000000000,30.0000000000,89.0000000000,162.0000000000,43.0000000000
1717675225132,204.0000000000,86.0000000000,30.0000000000,88.0000000000,161.0000000000,43.0000000000
1717675225145,202.0000000000,85.0000000000,30.0000000000,88.0000000000,160.0000000000,43.0000000000
1717675225146,201.0000000000,84.0000000000,30.0000000000,88.0000000000,159.0000000000,43.0000000000
1717675225146,200.0000000000,84.0000000000,30.0000000000,87.0000000000,159.0000000000,42.0000000000
1717675225146,199.0000000000,83.0000000000,29.0000000000,86.0000000000,158.0000000000,41.0000000000
1717675225147,198.0000000000,83.0000000000,30.0000000000,86.0000000000,157.0000000000,41.0000000000
1717675225147,197.0000000000,82.0000000000,29.0000000000,85.0000000000,156.0000000000,41.0000000000
1717675225147,196.0000000000,82.0000000000,28.0000000000,84.0000000000,155.0000000000,41.0000000000
1717675225165,195.0000000000,82.0000000000,28.0000000000,83.0000000000,155.0000000000,40.0000000000
1717675225165,194.0000000000,81.0000000000,28.0000000000,83.0000000000,153.0000000000,40.0000000000
1717675225166,193.0000000000,81.0000000000,28.0000000000,83.0000000000,152.0000000000,41.0000000000
1717675225166,192.0000000000,80.0000000000,28.0000000000,83.0000000000,152.0000000000,41.0000000000
1717675225166,191.0000000000,79.0000000000,28.0000000000,82.0000000000,152.0000000000,40.0000000000
1717675225166,190.0000000000,79.0000000000,28.0000000000,81.0000000000,153.0000000000,39.0000000000
1717675225166,189.0000000000,79.0000000000,28.0000000000,81.0000000000,157.0000000000,39.0000000000
1717675225166,188.0000000000,78.0000000000,27.0000000000,81.0000000000,156.0000000000,39.0000000000
1717675225166,188.0000000000,78.0000000000,27.0000000000,79.0000000000,155.0000000000,39.0000000000
1717675225167,187.0000000000,78.0000000000,27.0000000000,79.0000000000,153.0000000000,39.0000000000
1717675225167,185.0000000000,78.0000000000,27.0000000000,79.0000000000,153.0000000000,39.0000000000
1717675225188,184.0000000000,77.0000000000,28.0000000000,79.0000000000,152.0000000000,39.0000000000
1717675225189,207.0000000000,76.0000000000,27.0000000000,79.0000000000,151.0000000000,39.0000000000
1717675225189,205.0000000000,76.0000000000,27.0000000000,78.0000000000,151.0000000000,39.0000000000
1717675225189,203.0000000000,76.0000000000,27.0000000000,78.0000000000,150.0000000000,39.0000000000
1717675225189,201.0000000000,76.0000000000,26.0000000000,77.0000000000,148.0000000000,39.0000000000
1717675225189,203.0000000000,75.0000000000,26.0000000000,77.0000000000,147.0000000000,39.0000000000
1717675225189,201.0000000000,76.0000000000,25.0000000000,76.0000000000,147.0000000000,39.0000000000
1717675225190,199.0000000000,76.0000000000,25.0000000000,76.0000000000,146.0000000000,38.0000000000
1717675225190,199.0000000000,76.0000000000,25.0000000000,75.0000000000,145.0000000000,38.0000000000
1717675225190,198.0000000000,76.0000000000,25.0000000000,75.0000000000,237.0000000000,38.0000000000
1717675225190,196.0000000000,75.0000000000,25.0000000000,74.0000000000,235.0000000000,38.0000000000
1717675225190,195.0000000000,75.0000000000,25.0000000000,73.0000000000,233.0000000000,38.0000000000
1717675225190,193.0000000000,73.0000000000,24.0000000000,73.0000000000,231.0000000000,37.0000000000
1717675225190,192.0000000000,73.0000000000,25.0000000000,72.0000000000,230.0000000000,37.0000000000
1717675225205,192.0000000000,73.0000000000,25.0000000000,71.0000000000,227.0000000000,36.0000000000
1717675225206,190.0000000000,72.0000000000,24.0000000000,72.0000000000,227.0000000000,36.0000000000
1717675225206,189.0000000000,71.0000000000,24.0000000000,71.0000000000,225.0000000000,36.0000000000
1717675225206,188.0000000000,71.0000000000,24.0000000000,71.0000000000,224.0000000000,36.0000000000
1717675225206,187.0000000000,71.0000000000,24.0000000000,71.0000000000,222.0000000000,35.0000000000
1717675225206,185.0000000000,153.0000000000,24.0000000000,71.0000000000,221.0000000000,35.0000000000
1717675225206,184.0000000000,199.0000000000,24.0000000000,70.0000000000,220.0000000000,35.0000000000
1717675225206,184.0000000000,197.0000000000,24.0000000000,70.0000000000,217.0000000000,35.0000000000
1717675225206,182.0000000000,195.0000000000,24.0000000000,70.0000000000,216.0000000000,35.0000000000
1717675225220,181.0000000000,194.0000000000,24.0000000000,68.0000000000,216.0000000000,35.0000000000
1717675225221,180.0000000000,192.0000000000,24.0000000000,68.0000000000,214.0000000000,34.0000000000
1717675225221,179.0000000000,192.0000000000,24.0000000000,67.0000000000,212.0000000000,34.0000000000
1717675225221,178.0000000000,190.0000000000,23.0000000000,68.0000000000,211.0000000000,33.0000000000
1717675225221,177.0000000000,188.0000000000,24.0000000000,67.0000000000,209.0000000000,33.0000000000
1717675225221,176.0000000000,187.0000000000,24.0000000000,67.0000000000,207.0000000000,33.0000000000
1717675225221,175.0000000000,185.0000000000,23.0000000000,67.0000000000,207.0000000000,33.0000000000
1717675225235,174.0000000000,184.0000000000,24.0000000000,66.0000000000,206.0000000000,33.0000000000
1717675225236,173.0000000000,184.0000000000,23.0000000000,65.0000000000,204.0000000000,33.0000000000
1717675225236,172.0000000000,182.0000000000,24.0000000000,65.0000000000,204.0000000000,32.0000000000
1717675225236,172.0000000000,181.0000000000,23.0000000000,65.0000000000,201.0000000000,32.0000000000
1717675225236,170.0000000000,179.0000000000,23.0000000000,64.0000000000,199.0000000000,32.0000000000
1717675225236,169.0000000000,179.0000000000,23.0000000000,63.0000000000,199.0000000000,31.0000000000
1717675225236,167.0000000000,177.0000000000,23.0000000000,63.0000000000,199.0000000000,31.0000000000
1717675225236,167.0000000000,176.0000000000,23.0000000000,63.0000000000,197.0000000000,31.0000000000
1717675225251,167.0000000000,176.0000000000,22.0000000000,63.0000000000,195.0000000000,31.0000000000
1717675225251,166.0000000000,174.0000000000,22.0000000000,62.0000000000,195.0000000000,31.0000000000
1717675225252,164.0000000000,173.0000000000,22.0000000000,62.0000000000,193.0000000000,31.0000000000
1717675225252,164.0000000000,172.0000000000,22.0000000000,62.0000000000,192.0000000000,31.0000000000
1717675225252,163.0000000000,171.0000000000,22.0000000000,62.0000000000,192.0000000000,31.0000000000
1717675225252,220.0000000000,169.0000000000,21.0000000000,61.0000000000,191.0000000000,31.0000000000
1717675225252,287.0000000000,169.0000000000,21.0000000000,61.0000000000,189.0000000000,31.0000000000
1717675225252,309.0000000000,167.0000000000,22.0000000000,60.0000000000,188.0000000000,31.0000000000
1717675225252,305.0000000000,167.0000000000,21.0000000000,60.0000000000,187.0000000000,30.0000000000
1717675225268,304.0000000000,166.0000000000,20.0000000000,59.0000000000,185.0000000000,30.0000000000
1717675225269,301.0000000000,164.0000000000,20.0000000000,59.0000000000,184.0000000000,30.0000000000
1717675225269,299.0000000000,163.0000000000,20.0000000000,59.0000000000,184.0000000000,29.0000000000
1717675225269,295.0000000000,163.0000000000,20.0000000000,59.0000000000,183.0000000000,30.0000000000
1717675225269,295.0000000000,161.0000000000,20.0000000000,59.0000000000,182.0000000000,29.0000000000
1717675225269,291.0000000000,161.0000000000,20.0000000000,57.0000000000,180.0000000000,29.0000000000
1717675225269,289.0000000000,159.0000000000,20.0000000000,57.0000000000,179.0000000000,29.0000000000
1717675225270,287.0000000000,159.0000000000,20.0000000000,56.0000000000,178.0000000000,28.0000000000
1717675225270,286.0000000000,158.0000000000,20.0000000000,56.0000000000,177.0000000000,28.0000000000
1717675225286,283.0000000000,157.0000000000,19.0000000000,56.0000000000,176.0000000000,28.0000000000
1717675225287,281.0000000000,156.0000000000,19.0000000000,56.0000000000,175.0000000000,28.0000000000
1717675225287,280.0000000000,155.0000000000,19.0000000000,56.0000000000,174.0000000000,28.0000000000
1717675225287,278.0000000000,154.0000000000,19.0000000000,82.0000000000,173.0000000000,28.0000000000
1717675225287,275.0000000000,153.0000000000,24.0000000000,80.0000000000,172.0000000000,28.0000000000
1717675225287,273.0000000000,152.0000000000,24.0000000000,79.0000000000,171.0000000000,27.0000000000
1717675225287,271.0000000000,151.0000000000,24.0000000000,79.0000000000,169.0000000000,27.0000000000
1717675225287,270.0000000000,151.0000000000,24.0000000000,79.0000000000,168.0000000000,27.0000000000
1717675225288,268.0000000000,150.0000000000,23.0000000000,79.0000000000,167.0000000000,27.0000000000
1717675225288,266.0000000000,148.0000000000,23.0000000000,77.0000000000,167.0000000000,27.0000000000
1717675225288,263.0000000000,147.0000000000,22.0000000000,77.0000000000,166.0000000000,27.0000000000
1717675225303,263.0000000000,147.0000000000,22.0000000000,76.0000000000,165.0000000000,31.0000000000
1717675225303,261.0000000000,146.0000000000,22.0000000000,76.0000000000,164.0000000000,31.0000000000
1717675225303,259.0000000000,145.0000000000,22.0000000000,76.0000000000,163.0000000000,30.0000000000
1717675225303,257.0000000000,143.0000000000,22.0000000000,75.0000000000,162.0000000000,30.0000000000
1717675225304,255.0000000000,143.0000000000,22.0000000000,74.0000000000,161.0000000000,30.0000000000
1717675225304,254.0000000000,143.0000000000,22.0000000000,74.0000000000,161.0000000000,29.0000000000
1717675225318,252.0000000000,142.0000000000,21.0000000000,73.0000000000,159.0000000000,30.0000000000
1717675225318,251.0000000000,140.0000000000,22.0000000000,72.0000000000,159.0000000000,29.0000000000
1717675225318,249.0000000000,140.0000000000,22.0000000000,72.0000000000,158.0000000000,29.0000000000
1717675225318,248.0000000000,140.0000000000,21.0000000000,71.0000000000,157.0000000000,29.0000000000
1717675225319,246.0000000000,139.0000000000,21.0000000000,71.0000000000,156.0000000000,29.0000000000
1717675225319,244.0000000000,137.0000000000,20.0000000000,71.0000000000,155.0000000000,29.0000000000
1717675225319,243.0000000000,135.0000000000,21.0000000000,71.0000000000,154.0000000000,28.0000000000
1717675225319,241.0000000000,135.0000000000,20.0000000000,71.0000000000,153.0000000000,28.0000000000
1717675225319,240.0000000000,135.0000000000,20.0000000000,70.0000000000,152.0000000000,28.0000000000
1717675225332,239.0000000000,135.0000000000,20.0000000000,70.0000000000,152.0000000000,28.0000000000
1717675225333,263.0000000000,134.0000000000,20.0000000000,69.0000000000,151.0000000000,28.0000000000
1717675225333,261.0000000000,134.0000000000,20.0000000000,68.0000000000,254.0000000000,28.0000000000
1717675225334,259.0000000000,132.0000000000,19.0000000000,68.0000000000,259.0000000000,27.0000000000
1717675225334,257.0000000000,131.0000000000,20.0000000000,67.0000000000,257.0000000000,28.0000000000
1717675225334,255.0000000000,131.0000000000,19.0000000000,67.0000000000,255.0000000000,27.0000000000
1717675225334,253.0000000000,131.0000000000,19.0000000000,67.0000000000,254.0000000000,27.0000000000
1717675225334,252.0000000000,129.0000000000,19.0000000000,67.0000000000,252.0000000000,27.0000000000
1717675225334,250.0000000000,129.0000000000,19.0000000000,66.0000000000,249.0000000000,27.0000000000
1717675225350,248.0000000000,127.0000000000,19.0000000000,65.0000000000,269.0000000000,27.0000000000
1717675225350,247.0000000000,127.0000000000,19.0000000000,65.0000000000,267.0000000000,26.0000000000
1717675225351,244.0000000000,127.0000000000,19.0000000000,64.0000000000,265.0000000000,26.0000000000
1717675225351,243.0000000000,126.0000000000,19.0000000000,64.0000000000,263.0000000000,25.0000000000
1717675225351,241.0000000000,125.0000000000,19.0000000000,63.0000000000,261.0000000000,25.0000000000
1717675225351,240.0000000000,124.0000000000,19.0000000000,63.0000000000,259.0000000000,25.0000000000
1717675225351,238.0000000000,124.0000000000,18.0000000000,63.0000000000,257.0000000000,25.0000000000
1717675225351,236.0000000000,123.0000000000,18.0000000000,63.0000000000,255.0000000000,25.0000000000
1717675225351,236.0000000000,122.0000000000,18.0000000000,62.0000000000,254.0000000000,25.0000000000
1717675225366,233.0000000000,121.0000000000,18.0000000000,62.0000000000,252.0000000000,25.0000000000
1717675225367,231.0000000000,121.0000000000,17.0000000000,62.0000000000,251.0000000000,24.0000000000
1717675225367,231.0000000000,120.0000000000,18.0000000000,61.0000000000,249.0000000000,24.0000000000
1717675225367,230.0000000000,120.0000000000,18.0000000000,60.0000000000,248.0000000000,24.0000000000
1717675225368,227.0000000000,119.0000000000,18.0000000000,60.0000000000,246.0000000000,24.0000000000
1717675225368,227.0000000000,118.0000000000,17.0000000000,60.0000000000,244.0000000000,24.0000000000
1717675225368,225.0000000000,118.0000000000,17.0000000000,60.0000000000,243.0000000000,24.0000000000
1717675225368,224.0000000000,117.0000000000,17.0000000000,60.0000000000,241.0000000000,24.0000000000
1717675225382,223.0000000000,115.0000000000,17.0000000000,59.0000000000,240.0000000000,24.0000000000
1717675225382,221.0000000000,115.0000000000,17.0000000000,59.0000000000,238.0000000000,24.0000000000
1717675225382,220.0000000000,115.0000000000,17.0000000000,58.0000000000,236.0000000000,24.0000000000
1717675225382,217.0000000000,114.0000000000,17.0000000000,57.0000000000,235.0000000000,24.0000000000
1717675225382,216.0000000000,113.0000000000,17.0000000000,57.0000000000,233.0000000000,24.0000000000
1717675225383,216.0000000000,113.0000000000,16.0000000000,57.0000000000,231.0000000000,23.0000000000
1717675225383,215.0000000000,140.0000000000,16.0000000000,56.0000000000,231.0000000000,23.0000000000
1717675225383,213.0000000000,137.0000000000,16.0000000000,56.0000000000,229.0000000000,23.0000000000
1717675225383,211.0000000000,135.0000000000,15.0000000000,56.0000000000,227.0000000000,23.0000000000
1717675225396,211.0000000000,135.0000000000,16.0000000000,56.0000000000,226.0000000000,23.0000000000
1717675225397,209.0000000000,135.0000000000,16.0000000000,56.0000000000,224.0000000000,22.0000000000
1717675225397,208.0000000000,134.0000000000,16.0000000000,55.0000000000,224.0000000000,22.0000000000
1717675225397,207.0000000000,133.0000000000,15.0000000000,55.0000000000,222.0000000000,22.0000000000
1717675225397,206.0000000000,132.0000000000,15.0000000000,54.0000000000,220.0000000000,22.0000000000
1717675225397,204.0000000000,131.0000000000,15.0000000000,54.0000000000,220.0000000000,22.0000000000
1717675225397,204.0000000000,130.0000000000,15.0000000000,54.0000000000,218.0000000000,21.0000000000
1717675225398,202.0000000000,129.0000000000,15.0000000000,54.0000000000,216.0000000000,22.0000000000
1717675225398,201.0000000000,129.0000000000,15.0000000000,53.0000000000,216.0000000000,21.0000000000
1717675225411,199.0000000000,127.0000000000,15.0000000000,52.0000000000,215.0000000000,21.0000000000
1717675225411,199.0000000000,127.0000000000,15.0000000000,52.0000000000,212.0000000000,21.0000000000
1717675225412,198.0000000000,126.0000000000,15.0000000000,51.0000000000,211.0000000000,21.0000000000
1717675225412,196.0000000000,126.0000000000,15.0000000000,52.0000000000,210.0000000000,43.0000000000
1717675225412,195.0000000000,125.0000000000,15.0000000000,51.0000000000,209.0000000000,46.0000000000
1717675225412,193.0000000000,124.0000000000,15.0000000000,55.0000000000,207.0000000000,45.0000000000
1717675225425,192.0000000000,123.0000000000,15.0000000000,55.0000000000,207.0000000000,46.0000000000
1717675225426,192.0000000000,123.0000000000,14.0000000000,54.0000000000,205.0000000000,44.0000000000
1717675225426,191.0000000000,121.0000000000,15.0000000000,54.0000000000,236.0000000000,44.0000000000
1717675225426,190.0000000000,120.0000000000,14.0000000000,53.0000000000,234.0000000000,44.0000000000
1717675225426,188.0000000000,120.0000000000,15.0000000000,53.0000000000,231.0000000000,44.0000000000
1717675225426,188.0000000000,120.0000000000,63.0000000000,55.0000000000,230.0000000000,43.0000000000
1717675225426,187.0000000000,119.0000000000,63.0000000000,55.0000000000,229.0000000000,44.0000000000
1717675225440,185.0000000000,118.0000000000,62.0000000000,54.0000000000,227.0000000000,43.0000000000
1717675225441,184.0000000000,117.0000000000,62.0000000000,53.0000000000,225.0000000000,42.0000000000
1717675225441,183.0000000000,116.0000000000,62.0000000000,54.0000000000,224.0000000000,43.0000000000
1717675225441,182.0000000000,115.0000000000,60.0000000000,53.0000000000,224.0000000000,42.0000000000
1717675225441,182.0000000000,115.0000000000,60.0000000000,52.0000000000,222.0000000000,42.0000000000
1717675225442,179.0000000000,114.0000000000,60.0000000000,52.0000000000,220.0000000000,42.0000000000
1717675225442,179.0000000000,113.0000000000,60.0000000000,52.0000000000,219.0000000000,41.0000000000
1717675225442,177.0000000000,113.0000000000,59.0000000000,51.0000000000,217.0000000000,41.0000000000
1717675225442,177.0000000000,112.0000000000,59.0000000000,51.0000000000,216.0000000000,39.0000000000
1717675225462,176.0000000000,148.0000000000,58.0000000000,51.0000000000,215.0000000000,39.0000000000
1717675225463,175.0000000000,147.0000000000,58.0000000000,51.0000000000,212.0000000000,39.0000000000
1717675225463,174.0000000000,146.0000000000,57.0000000000,50.0000000000,211.0000000000,39.0000000000
1717675225463,173.0000000000,144.0000000000,57.0000000000,131.0000000000,211.0000000000,39.0000000000
1717675225464,172.0000000000,143.0000000000,57.0000000000,127.0000000000,209.0000000000,39.0000000000
1717675225464,171.0000000000,143.0000000000,56.0000000000,127.0000000000,207.0000000000,39.0000000000
1717675225464,169.0000000000,142.0000000000,56.0000000000,126.0000000000,206.0000000000,39.0000000000
1717675225464,169.0000000000,141.0000000000,56.0000000000,125.0000000000,205.0000000000,39.0000000000
1717675225464,167.0000000000,140.0000000000,56.0000000000,124.0000000000,204.0000000000,39.0000000000
1717675225465,195.0000000000,139.0000000000,55.0000000000,123.0000000000,202.0000000000,38.0000000000
1717675225465,200.0000000000,138.0000000000,55.0000000000,123.0000000000,201.0000000000,38.0000000000
1717675225465,199.0000000000,136.0000000000,54.0000000000,121.0000000000,199.0000000000,38.0000000000
1717675225491,198.0000000000,135.0000000000,54.0000000000,120.0000000000,199.0000000000,37.0000000000
1717675225491,195.0000000000,135.0000000000,53.0000000000,120.0000000000,197.0000000000,37.0000000000
1717675225491,195.0000000000,135.0000000000,54.0000000000,119.0000000000,196.0000000000,36.0000000000
1717675225491,193.0000000000,134.0000000000,52.0000000000,118.0000000000,195.0000000000,36.0000000000
1717675225491,192.0000000000,132.0000000000,51.0000000000,117.0000000000,193.0000000000,36.0000000000
1717675225492,191.0000000000,131.0000000000,51.0000000000,116.0000000000,192.0000000000,35.0000000000
1717675225492,189.0000000000,131.0000000000,51.0000000000,115.0000000000,192.0000000000,35.0000000000
1717675225492,188.0000000000,130.0000000000,51.0000000000,115.0000000000,190.0000000000,35.0000000000
1717675225492,187.0000000000,129.0000000000,51.0000000000,114.0000000000,190.0000000000,35.0000000000
1717675225492,185.0000000000,128.0000000000,51.0000000000,113.0000000000,188.0000000000,35.0000000000
1717675225492,184.0000000000,127.0000000000,51.0000000000,112.0000000000,187.0000000000,35.0000000000
1717675225492,183.0000000000,127.0000000000,50.0000000000,111.0000000000,186.0000000000,34.0000000000
1717675225492,182.0000000000,125.0000000000,49.0000000000,111.0000000000,185.0000000000,35.0000000000
1717675225492,179.0000000000,124.0000000000,49.0000000000,111.0000000000,184.0000000000,34.0000000000
1717675225492,179.0000000000,124.0000000000,49.0000000000,110.0000000000,183.0000000000,33.0000000000
1717675225507,177.0000000000,124.0000000000,48.0000000000,109.0000000000,182.0000000000,33.0000000000
1717675225508,176.0000000000,123.0000000000,48.0000000000,108.0000000000,255.0000000000,33.0000000000
1717675225508,176.0000000000,121.0000000000,48.0000000000,108.0000000000,258.0000000000,33.0000000000
1717675225508,174.0000000000,121.0000000000,48.0000000000,107.0000000000,255.0000000000,32.0000000000
1717675225508,172.0000000000,120.0000000000,47.0000000000,105.0000000000,254.0000000000,33.0000000000
1717675225508,172.0000000000,120.0000000000,48.0000000000,105.0000000000,252.0000000000,32.0000000000
1717675225509,171.0000000000,119.0000000000,47.0000000000,103.0000000000,251.0000000000,31.0000000000
1717675225509,169.0000000000,118.0000000000,47.0000000000,103.0000000000,248.0000000000,31.0000000000
1717675225524,169.0000000000,118.0000000000,46.0000000000,155.0000000000,247.0000000000,31.0000000000
1717675225524,167.0000000000,116.0000000000,46.0000000000,167.0000000000,246.0000000000,33.0000000000
1717675225524,166.0000000000,115.0000000000,46.0000000000,166.0000000000,243.0000000000,32.0000000000
1717675225524,165.0000000000,115.0000000000,45.0000000000,164.0000000000,241.0000000000,32.0000000000
1717675225525,164.0000000000,114.0000000000,45.0000000000,163.0000000000,240.0000000000,31.0000000000
1717675225525,163.0000000000,113.0000000000,45.0000000000,162.0000000000,238.0000000000,32.0000000000
1717675225525,163.0000000000,113.0000000000,44.0000000000,161.0000000000,236.0000000000,31.0000000000
1717675225539,163.0000000000,112.0000000000,44.0000000000,160.0000000000,235.0000000000,31.0000000000
1717675225539,162.0000000000,112.0000000000,44.0000000000,159.0000000000,233.0000000000,31.0000000000
1717675225540,161.0000000000,111.0000000000,44.0000000000,158.0000000000,231.0000000000,31.0000000000
1717675225540,159.0000000000,110.0000000000,43.0000000000,156.0000000000,230.0000000000,31.0000000000
1717675225540,159.0000000000,110.0000000000,44.0000000000,156.0000000000,229.0000000000,31.0000000000
1717675225540,159.0000000000,109.0000000000,43.0000000000,155.0000000000,227.0000000000,31.0000000000
1717675225540,158.0000000000,108.0000000000,43.0000000000,153.0000000000,226.0000000000,30.0000000000
1717675225540,157.0000000000,108.0000000000,43.0000000000,152.0000000000,224.0000000000,30.0000000000
1717675225558,156.0000000000,107.0000000000,41.0000000000,152.0000000000,223.0000000000,30.0000000000
1717675225558,155.0000000000,106.0000000000,41.0000000000,150.0000000000,222.0000000000,30.0000000000
1717675225558,155.0000000000,124.0000000000,41.0000000000,149.0000000000,220.0000000000,30.0000000000
1717675225558,153.0000000000,159.0000000000,41.0000000000,148.0000000000,219.0000000000,29.0000000000
1717675225558,152.0000000000,158.0000000000,41.0000000000,147.0000000000,217.0000000000,29.0000000000
1717675225559,152.0000000000,156.0000000000,41.0000000000,146.0000000000,216.0000000000,29.0000000000
1717675225559,151.0000000000,155.0000000000,40.0000000000,145.0000000000,215.0000000000,28.0000000000
1717675225559,150.0000000000,155.0000000000,39.0000000000,143.0000000000,212.0000000000,29.0000000000
1717675225559,148.0000000000,153.0000000000,39.0000000000,143.0000000000,211.0000000000,28.0000000000
1717675225559,148.0000000000,152.0000000000,39.0000000000,142.0000000000,210.0000000000,28.0000000000
1717675225559,147.0000000000,152.0000000000,39.0000000000,142.0000000000,209.0000000000,28.0000000000
1717675225581,147.0000000000,150.0000000000,39.0000000000,140.0000000000,207.0000000000,28.0000000000
1717675225583,145.0000000000,149.0000000000,39.0000000000,140.0000000000,206.0000000000,28.0000000000
1717675225583,145.0000000000,147.0000000000,39.0000000000,139.0000000000,205.0000000000,28.0000000000
1717675225583,144.0000000000,147.0000000000,39.0000000000,137.0000000000,204.0000000000,28.0000000000
1717675225583,143.0000000000,146.0000000000,39.0000000000,136.0000000000,203.0000000000,27.0000000000
1717675225583,143.0000000000,145.0000000000,38.0000000000,135.0000000000,200.0000000000,28.0000000000
1717675225583,142.0000000000,143.0000000000,38.0000000000,135.0000000000,199.0000000000,27.0000000000
1717675225583,140.0000000000,143.0000000000,37.0000000000,134.0000000000,199.0000000000,27.0000000000
1717675225584,140.0000000000,142.0000000000,38.0000000000,133.0000000000,198.0000000000,27.0000000000
1717675225584,140.0000000000,142.0000000000,37.0000000000,132.0000000000,196.0000000000,27.0000000000
1717675225584,139.0000000000,140.0000000000,36.0000000000,131.0000000000,195.0000000000,25.0000000000
1717675225584,138.0000000000,140.0000000000,36.0000000000,131.0000000000,193.0000000000,26.0000000000
1717675225602,137.0000000000,139.0000000000,36.0000000000,130.0000000000,192.0000000000,26.0000000000
1717675225603,135.0000000000,137.0000000000,35.0000000000,129.0000000000,192.0000000000,25.0000000000
1717675225603,135.0000000000,135.0000000000,36.0000000000,127.0000000000,190.0000000000,25.0000000000
1717675225603,135.0000000000,135.0000000000,35.0000000000,127.0000000000,189.0000000000,25.0000000000
1717675225604,135.0000000000,135.0000000000,35.0000000000,127.0000000000,188.0000000000,24.0000000000
1717675225604,134.0000000000,134.0000000000,35.0000000000,126.0000000000,187.0000000000,25.0000000000
1717675225604,192.0000000000,133.0000000000,35.0000000000,125.0000000000,186.0000000000,25.0000000000
1717675225604,245.0000000000,132.0000000000,35.0000000000,124.0000000000,184.0000000000,24.0000000000
1717675225604,243.0000000000,131.0000000000,34.0000000000,124.0000000000,184.0000000000,24.0000000000
1717675225605,240.0000000000,131.0000000000,34.0000000000,123.0000000000,183.0000000000,24.0000000000
1717675225605,239.0000000000,129.0000000000,35.0000000000,122.0000000000,181.0000000000,24.0000000000
1717675225629,237.0000000000,129.0000000000,35.0000000000,121.0000000000,180.0000000000,31.0000000000
1717675225632,235.0000000000,127.0000000000,34.0000000000,120.0000000000,179.0000000000,33.0000000000
1717675225633,233.0000000000,127.0000000000,34.0000000000,120.0000000000,178.0000000000,33.0000000000
1717675225634,231.0000000000,127.0000000000,33.0000000000,119.0000000000,177.0000000000,33.0000000000
1717675225635,230.0000000000,126.0000000000,33.0000000000,118.0000000000,176.0000000000,32.0000000000
1717675225636,228.0000000000,125.0000000000,33.0000000000,117.0000000000,175.0000000000,32.0000000000
1717675225637,226.0000000000,124.0000000000,33.0000000000,116.0000000000,174.0000000000,31.0000000000
1717675225638,225.0000000000,124.0000000000,33.0000000000,115.0000000000,173.0000000000,31.0000000000
1717675225639,223.0000000000,123.0000000000,33.0000000000,115.0000000000,172.0000000000,31.0000000000
1717675225639,221.0000000000,121.0000000000,33.0000000000,115.0000000000,171.0000000000,31.0000000000
1717675225640,220.0000000000,121.0000000000,31.0000000000,113.0000000000,170.0000000000,31.0000000000
1717675225640,219.0000000000,120.0000000000,32.0000000000,112.0000000000,168.0000000000,31.0000000000
1717675225640,216.0000000000,120.0000000000,31.0000000000,112.0000000000,167.0000000000,30.0000000000
1717675225641,216.0000000000,119.0000000000,31.0000000000,112.0000000000,167.0000000000,31.0000000000
1717675225641,214.0000000000,118.0000000000,31.0000000000,111.0000000000,166.0000000000,30.0000000000
1717675225641,212.0000000000,118.0000000000,31.0000000000,110.0000000000,165.0000000000,30.0000000000
1717675225641,211.0000000000,116.0000000000,31.0000000000,110.0000000000,163.0000000000,30.0000000000
1717675225642,209.0000000000,116.0000000000,31.0000000000,109.0000000000,163.0000000000,30.0000000000
1717675225670,208.0000000000,115.0000000000,35.0000000000,108.0000000000,161.0000000000,29.0000000000
1717675225671,207.0000000000,115.0000000000,35.0000000000,108.0000000000,161.0000000000,30.0000000000
1717675225671,206.0000000000,113.0000000000,35.0000000000,107.0000000000,159.0000000000,29.0000000000
1717675225671,204.0000000000,113.0000000000,35.0000000000,107.0000000000,159.0000000000,28.0000000000
1717675225671,203.0000000000,112.0000000000,35.0000000000,105.0000000000,159.0000000000,28.0000000000
1717675225671,201.0000000000,111.0000000000,34.0000000000,105.0000000000,158.0000000000,28.0000000000
1717675225671,199.0000000000,111.0000000000,34.0000000000,104.0000000000,156.0000000000,28.0000000000
1717675225671,199.0000000000,110.0000000000,33.0000000000,103.0000000000,169.0000000000,28.0000000000
1717675225671,198.0000000000,110.0000000000,33.0000000000,139.0000000000,224.0000000000,28.0000000000
1717675225672,195.0000000000,108.0000000000,33.0000000000,137.0000000000,222.0000000000,28.0000000000
1717675225672,244.0000000000,108.0000000000,33.0000000000,135.0000000000,220.0000000000,27.0000000000
1717675225672,242.0000000000,108.0000000000,33.0000000000,135.0000000000,218.0000000000,27.0000000000
1717675225672,240.0000000000,107.0000000000,33.0000000000,135.0000000000,216.0000000000,27.0000000000
1717675225672,238.0000000000,107.0000000000,32.0000000000,134.0000000000,216.0000000000,27.0000000000
1717675225672,236.0000000000,105.0000000000,32.0000000000,132.0000000000,214.0000000000,27.0000000000
1717675225673,233.0000000000,105.0000000000,31.0000000000,131.0000000000,212.0000000000,27.0000000000
1717675225673,231.0000000000,104.0000000000,31.0000000000,131.0000000000,211.0000000000,26.0000000000
1717675225705,339.0000000000,103.0000000000,31.0000000000,130.0000000000,209.0000000000,26.0000000000
1717675225706,335.0000000000,103.0000000000,31.0000000000,129.0000000000,207.0000000000,26.0000000000
1717675225706,332.0000000000,102.0000000000,31.0000000000,127.0000000000,207.0000000000,26.0000000000
1717675225706,328.0000000000,102.0000000000,31.0000000000,127.0000000000,205.0000000000,25.0000000000
1717675225706,326.0000000000,102.0000000000,31.0000000000,126.0000000000,204.0000000000,25.0000000000
1717675225706,323.0000000000,100.0000000000,31.0000000000,126.0000000000,203.0000000000,25.0000000000
1717675225706,319.0000000000,100.0000000000,30.0000000000,125.0000000000,201.0000000000,24.0000000000
1717675225707,318.0000000000,99.0000000000,30.0000000000,124.0000000000,199.0000000000,24.0000000000
1717675225707,316.0000000000,99.0000000000,30.0000000000,123.0000000000,199.0000000000,24.0000000000
1717675225707,313.0000000000,99.0000000000,30.0000000000,122.0000000000,197.0000000000,24.0000000000
1717675225707,311.0000000000,98.0000000000,30.0000000000,121.0000000000,195.0000000000,24.0000000000
1717675225707,308.0000000000,97.0000000000,30.0000000000,121.0000000000,195.0000000000,24.0000000000
1717675225707,307.0000000000,97.0000000000,30.0000000000,120.0000000000,193.0000000000,24.0000000000
1717675225707,304.0000000000,96.0000000000,29.0000000000,119.0000000000,192.0000000000,24.0000000000
1717675225707,302.0000000000,96.0000000000,29.0000000000,118.0000000000,192.0000000000,24.0000000000
1717675225707,300.0000000000,95.0000000000,29.0000000000,118.0000000000,190.0000000000,24.0000000000
1717675225707,297.0000000000,95.0000000000,29.0000000000,117.0000000000,189.0000000000,24.0000000000
1717675225723,295.0000000000,95.0000000000,29.0000000000,115.0000000000,188.0000000000,24.0000000000
1717675225724,293.0000000000,94.0000000000,28.0000000000,115.0000000000,187.0000000000,23.0000000000
1717675225724,291.0000000000,94.0000000000,28.0000000000,114.0000000000,185.0000000000,23.0000000000
1717675225724,289.0000000000,93.0000000000,28.0000000000,114.0000000000,184.0000000000,23.0000000000
1717675225725,287.0000000000,92.0000000000,28.0000000000,113.0000000000,184.0000000000,23.0000000000
1717675225725,286.0000000000,92.0000000000,28.0000000000,112.0000000000,182.0000000000,23.0000000000
1717675225725,284.0000000000,91.0000000000,28.0000000000,112.0000000000,181.0000000000,23.0000000000
1717675225725,281.0000000000,91.0000000000,27.0000000000,111.0000000000,180.0000000000,22.0000000000
1717675225725,280.0000000000,91.0000000000,28.0000000000,111.0000000000,179.0000000000,23.0000000000
1717675225740,278.0000000000,89.0000000000,27.0000000000,110.0000000000,177.0000000000,22.0000000000
1717675225740,276.0000000000,89.0000000000,27.0000000000,110.0000000000,177.0000000000,22.0000000000
1717675225740,274.0000000000,89.0000000000,27.0000000000,108.0000000000,176.0000000000,22.0000000000
1717675225740,271.0000000000,88.0000000000,26.0000000000,108.0000000000,175.0000000000,22.0000000000
1717675225740,271.0000000000,88.0000000000,27.0000000000,107.0000000000,174.0000000000,21.0000000000
1717675225740,269.0000000000,88.0000000000,26.0000000000,107.0000000000,172.0000000000,21.0000000000
1717675225741,268.0000000000,87.0000000000,27.0000000000,105.0000000000,172.0000000000,22.0000000000
1717675225741,265.0000000000,87.0000000000,26.0000000000,105.0000000000,171.0000000000,21.0000000000
1717675225741,263.0000000000,86.0000000000,26.0000000000,103.0000000000,169.0000000000,22.0000000000
1717675225754,262.0000000000,86.0000000000,25.0000000000,103.0000000000,168.0000000000,21.0000000000
1717675225754,260.0000000000,85.0000000000,25.0000000000,103.0000000000,167.0000000000,21.0000000000
1717675225755,259.0000000000,86.0000000000,25.0000000000,103.0000000000,167.0000000000,22.0000000000
1717675225755,295.0000000000,117.0000000000,24.0000000000,102.0000000000,166.0000000000,22.0000000000
1717675225755,291.0000000000,115.0000000000,25.0000000000,102.0000000000,165.0000000000,21.0000000000
1717675225755,289.0000000000,115.0000000000,25.0000000000,100.0000000000,163.0000000000,20.0000000000
1717675225755,287.0000000000,113.0000000000,25.0000000000,99.0000000000,163.0000000000,21.0000000000
1717675225755,284.0000000000,113.0000000000,24.0000000000,99.0000000000,161.0000000000,20.0000000000
1717675225756,283.0000000000,112.0000000000,24.0000000000,99.0000000000,161.0000000000,20.0000000000
1717675225769,280.0000000000,112.0000000000,24.0000000000,124.0000000000,159.0000000000,20.0000000000
1717675225769,279.0000000000,111.0000000000,24.0000000000,123.0000000000,159.0000000000,20.0000000000
1717675225769,276.0000000000,110.0000000000,24.0000000000,121.0000000000,158.0000000000,20.0000000000
1717675225769,274.0000000000,110.0000000000,24.0000000000,121.0000000000,157.0000000000,19.0000000000
1717675225770,272.0000000000,108.0000000000,24.0000000000,120.0000000000,156.0000000000,19.0000000000
1717675225770,270.0000000000,108.0000000000,24.0000000000,119.0000000000,156.0000000000,19.0000000000
1717675225783,268.0000000000,108.0000000000,23.0000000000,118.0000000000,155.0000000000,19.0000000000
1717675225784,266.0000000000,107.0000000000,24.0000000000,117.0000000000,153.0000000000,19.0000000000
1717675225784,263.0000000000,106.0000000000,23.0000000000,116.0000000000,152.0000000000,31.0000000000
1717675225784,263.0000000000,106.0000000000,23.0000000000,116.0000000000,152.0000000000,51.0000000000
1717675225785,260.0000000000,105.0000000000,23.0000000000,115.0000000000,151.0000000000,50.0000000000
1717675225785,259.0000000000,103.0000000000,24.0000000000,113.0000000000,151.0000000000,50.0000000000
1717675225785,257.0000000000,103.0000000000,27.0000000000,113.0000000000,150.0000000000,49.0000000000
1717675225785,255.0000000000,103.0000000000,27.0000000000,113.0000000000,148.0000000000,49.0000000000
1717675225801,254.0000000000,102.0000000000,25.0000000000,112.0000000000,148.0000000000,49.0000000000
1717675225802,252.0000000000,102.0000000000,25.0000000000,111.0000000000,147.0000000000,48.0000000000
1717675225802,249.0000000000,101.0000000000,25.0000000000,110.0000000000,147.0000000000,48.0000000000
1717675225803,248.0000000000,100.0000000000,25.0000000000,110.0000000000,145.0000000000,48.0000000000
1717675225803,248.0000000000,99.0000000000,25.0000000000,108.0000000000,144.0000000000,47.0000000000
1717675225803,246.0000000000,99.0000000000,24.0000000000,108.0000000000,143.0000000000,47.0000000000
1717675225803,243.0000000000,98.0000000000,24.0000000000,107.0000000000,143.0000000000,47.0000000000
1717675225803,243.0000000000,98.0000000000,24.0000000000,107.0000000000,143.0000000000,47.0000000000
1717675225804,241.0000000000,97.0000000000,24.0000000000,106.0000000000,141.0000000000,46.0000000000
1717675225804,240.0000000000,97.0000000000,24.0000000000,105.0000000000,141.0000000000,46.0000000000
1717675225804,238.0000000000,96.0000000000,24.0000000000,104.0000000000,140.0000000000,46.0000000000
1717675225818,237.0000000000,96.0000000000,24.0000000000,103.0000000000,139.0000000000,45.0000000000
1717675225820,235.0000000000,95.0000000000,24.0000000000,103.0000000000,207.0000000000,45.0000000000
1717675225820,233.0000000000,94.0000000000,24.0000000000,103.0000000000,204.0000000000,45.0000000000
1717675225820,231.0000000000,94.0000000000,24.0000000000,103.0000000000,203.0000000000,44.0000000000
1717675225820,231.0000000000,93.0000000000,24.0000000000,101.0000000000,201.0000000000,44.0000000000
1717675225820,230.0000000000,158.0000000000,24.0000000000,101.0000000000,199.0000000000,43.0000000000
1717675225820,318.0000000000,204.0000000000,23.0000000000,100.0000000000,199.0000000000,44.0000000000
1717675225821,313.0000000000,201.0000000000,39.0000000000,178.0000000000,198.0000000000,43.0000000000
1717675225821,312.0000000000,199.0000000000,39.0000000000,176.0000000000,195.0000000000,43.0000000000
1717675225836,308.0000000000,198.0000000000,39.0000000000,175.0000000000,195.0000000000,43.0000000000
1717675225836,306.0000000000,196.0000000000,39.0000000000,174.0000000000,193.0000000000,41.0000000000
1717675225836,304.0000000000,195.0000000000,38.0000000000,172.0000000000,192.0000000000,42.0000000000
1717675225836,301.0000000000,193.0000000000,38.0000000000,171.0000000000,191.0000000000,41.0000000000
1717675225836,299.0000000000,192.0000000000,37.0000000000,169.0000000000,190.0000000000,41.0000000000
1717675225837,296.0000000000,192.0000000000,36.0000000000,167.0000000000,188.0000000000,41.0000000000
1717675225837,294.0000000000,190.0000000000,36.0000000000,167.0000000000,187.0000000000,39.0000000000
1717675225837,291.0000000000,188.0000000000,36.0000000000,166.0000000000,185.0000000000,40.0000000000
1717675225851,290.0000000000,187.0000000000,35.0000000000,164.0000000000,184.0000000000,39.0000000000
1717675225851,287.0000000000,185.0000000000,38.0000000000,163.0000000000,184.0000000000,39.0000000000
1717675225851,286.0000000000,184.0000000000,38.0000000000,162.0000000000,190.0000000000,39.0000000000
1717675225852,284.0000000000,184.0000000000,37.0000000000,161.0000000000,188.0000000000,39.0000000000
1717675225852,281.0000000000,182.0000000000,36.0000000000,159.0000000000,187.0000000000,39.0000000000
1717675225852,280.0000000000,180.0000000000,37.0000000000,159.0000000000,185.0000000000,39.0000000000
1717675225865,278.0000000000,179.0000000000,36.0000000000,158.0000000000,184.0000000000,39.0000000000
1717675225866,275.0000000000,178.0000000000,36.0000000000,157.0000000000,183.0000000000,38.0000000000
1717675225866,273.0000000000,177.0000000000,36.0000000000,156.0000000000,182.0000000000,38.0000000000
1717675225867,271.0000000000,176.0000000000,35.0000000000,155.0000000000,180.0000000000,38.0000000000
1717675225867,270.0000000000,175.0000000000,35.0000000000,153.0000000000,179.0000000000,37.0000000000
1717675225867,268.0000000000,174.0000000000,35.0000000000,152.0000000000,178.0000000000,37.0000000000
1717675225867,266.0000000000,173.0000000000,83.0000000000,152.0000000000,177.0000000000,38.0000000000
1717675225867,263.0000000000,172.0000000000,82.0000000000,151.0000000000,176.0000000000,38.0000000000
1717675225867,263.0000000000,171.0000000000,81.0000000000,150.0000000000,175.0000000000,38.0000000000
1717675225889,260.0000000000,169.0000000000,79.0000000000,148.0000000000,174.0000000000,38.0000000000
1717675225890,259.0000000000,168.0000000000,79.0000000000,147.0000000000,173.0000000000,37.0000000000
1717675225890,257.0000000000,167.0000000000,79.0000000000,147.0000000000,172.0000000000,37.0000000000
1717675225890,255.0000000000,166.0000000000,79.0000000000,145.0000000000,171.0000000000,36.0000000000
1717675225891,254.0000000000,165.0000000000,78.0000000000,144.0000000000,169.0000000000,36.0000000000
1717675225891,252.0000000000,164.0000000000,77.0000000000,143.0000000000,168.0000000000,36.0000000000
1717675225891,250.0000000000,163.0000000000,77.0000000000,143.0000000000,167.0000000000,35.0000000000
1717675225891,248.0000000000,162.0000000000,76.0000000000,142.0000000000,167.0000000000,36.0000000000
1717675225891,247.0000000000,161.0000000000,77.0000000000,142.0000000000,166.0000000000,35.0000000000
1717675225892,244.0000000000,270.0000000000,77.0000000000,140.0000000000,164.0000000000,35.0000000000
1717675225892,243.0000000000,308.0000000000,76.0000000000,139.0000000000,163.0000000000,35.0000000000
1717675225892,242.0000000000,305.0000000000,76.0000000000,139.0000000000,162.0000000000,35.0000000000
1717675225908,240.0000000000,303.0000000000,76.0000000000,137.0000000000,161.0000000000,35.0000000000
1717675225911,239.0000000000,300.0000000000,75.0000000000,136.0000000000,159.0000000000,35.0000000000
1717675225912,237.0000000000,297.0000000000,75.0000000000,135.0000000000,159.0000000000,33.0000000000
1717675225912,236.0000000000,295.0000000000,74.0000000000,135.0000000000,158.0000000000,34.0000000000
1717675225913,234.0000000000,292.0000000000,73.0000000000,134.0000000000,158.0000000000,34.0000000000
1717675225914,231.0000000000,291.0000000000,73.0000000000,133.0000000000,156.0000000000,33.0000000000
1717675225914,231.0000000000,287.0000000000,71.0000000000,132.0000000000,156.0000000000,33.0000000000
1717675225915,243.0000000000,286.0000000000,71.0000000000,131.0000000000,155.0000000000,33.0000000000
1717675225915,417.0000000000,284.0000000000,71.0000000000,131.0000000000,153.0000000000,32.0000000000
1717675225916,415.0000000000,281.0000000000,71.0000000000,129.0000000000,152.0000000000,32.0000000000
1717675225917,411.0000000000,280.0000000000,71.0000000000,129.0000000000,152.0000000000,32.0000000000
1717675225917,408.0000000000,279.0000000000,70.0000000000,127.0000000000,151.0000000000,31.0000000000
1717675225917,403.0000000000,276.0000000000,70.0000000000,127.0000000000,150.0000000000,31.0000000000
1717675225948,399.0000000000,274.0000000000,70.0000000000,127.0000000000,149.0000000000,31.0000000000
1717675225949,396.0000000000,272.0000000000,68.0000000000,126.0000000000,147.0000000000,31.0000000000
1717675225950,393.0000000000,270.0000000000,68.0000000000,125.0000000000,147.0000000000,31.0000000000
1717675225950,390.0000000000,268.0000000000,67.0000000000,124.0000000000,146.0000000000,31.0000000000
1717675225950,386.0000000000,267.0000000000,67.0000000000,124.0000000000,145.0000000000,31.0000000000
1717675225951,384.0000000000,263.0000000000,67.0000000000,123.0000000000,144.0000000000,31.0000000000
1717675225951,380.0000000000,263.0000000000,67.0000000000,121.0000000000,143.0000000000,30.0000000000
1717675225951,376.0000000000,260.0000000000,66.0000000000,121.0000000000,143.0000000000,31.0000000000
1717675225952,374.0000000000,259.0000000000,65.0000000000,120.0000000000,142.0000000000,30.0000000000
1717675225952,371.0000000000,257.0000000000,65.0000000000,120.0000000000,141.0000000000,30.0000000000
1717675225952,368.0000000000,255.0000000000,64.0000000000,119.0000000000,140.0000000000,35.0000000000
1717675225952,365.0000000000,254.0000000000,63.0000000000,118.0000000000,140.0000000000,38.0000000000
1717675225953,363.0000000000,252.0000000000,63.0000000000,117.0000000000,139.0000000000,36.0000000000
1717675225953,359.0000000000,251.0000000000,63.0000000000,116.0000000000,138.0000000000,36.0000000000
1717675225953,356.0000000000,249.0000000000,63.0000000000,115.0000000000,184.0000000000,36.0000000000
1717675225953,354.0000000000,248.0000000000,63.0000000000,115.0000000000,183.0000000000,36.0000000000
1717675225954,351.0000000000,246.0000000000,63.0000000000,115.0000000000,182.0000000000,38.0000000000
1717675225955,349.0000000000,244.0000000000,62.0000000000,114.0000000000,181.0000000000,37.0000000000
1717675225956,346.0000000000,243.0000000000,61.0000000000,113.0000000000,179.0000000000,36.0000000000
1717675225957,344.0000000000,241.0000000000,61.0000000000,112.0000000000,178.0000000000,36.0000000000
1717675225958,341.0000000000,240.0000000000,61.0000000000,112.0000000000,177.0000000000,35.0000000000
1717675225988,338.0000000000,238.0000000000,60.0000000000,111.0000000000,176.0000000000,36.0000000000
1717675225989,335.0000000000,236.0000000000,60.0000000000,110.0000000000,175.0000000000,35.0000000000
1717675225989,334.0000000000,235.0000000000,60.0000000000,110.0000000000,174.0000000000,35.0000000000
1717675225989,331.0000000000,233.0000000000,60.0000000000,109.0000000000,172.0000000000,35.0000000000
1717675225989,327.0000000000,231.0000000000,59.0000000000,108.0000000000,172.0000000000,35.0000000000
1717675225990,436.0000000000,231.0000000000,58.0000000000,108.0000000000,169.0000000000,35.0000000000
1717675225990,432.0000000000,229.0000000000,58.0000000000,107.0000000000,169.0000000000,35.0000000000
1717675225990,427.0000000000,227.0000000000,57.0000000000,107.0000000000,167.0000000000,35.0000000000
1717675225990,423.0000000000,227.0000000000,57.0000000000,105.0000000000,167.0000000000,34.0000000000
1717675225990,419.0000000000,225.0000000000,57.0000000000,105.0000000000,166.0000000000,34.0000000000
1717675225990,415.0000000000,224.0000000000,56.0000000000,103.0000000000,165.0000000000,33.0000000000
1717675225990,412.0000000000,222.0000000000,56.0000000000,103.0000000000,163.0000000000,33.0000000000
1717675225991,408.0000000000,220.0000000000,56.0000000000,103.0000000000,163.0000000000,33.0000000000
1717675225991,404.0000000000,219.0000000000,56.0000000000,102.0000000000,161.0000000000,32.0000000000
1717675225991,401.0000000000,217.0000000000,56.0000000000,102.0000000000,160.0000000000,33.0000000000
1717675225991,398.0000000000,273.0000000000,55.0000000000,101.0000000000,159.0000000000,32.0000000000
1717675226006,395.0000000000,270.0000000000,55.0000000000,100.0000000000,159.0000000000,31.0000000000
1717675226006,391.0000000000,268.0000000000,54.0000000000,100.0000000000,158.0000000000,31.0000000000
1717675226006,388.0000000000,265.0000000000,54.0000000000,99.0000000000,156.0000000000,31.0000000000
1717675226007,385.0000000000,263.0000000000,54.0000000000,99.0000000000,156.0000000000,31.0000000000
1717675226007,382.0000000000,263.0000000000,53.0000000000,99.0000000000,155.0000000000,31.0000000000
1717675226007,379.0000000000,259.0000000000,53.0000000000,97.0000000000,153.0000000000,31.0000000000
1717675226007,376.0000000000,258.0000000000,52.0000000000,97.0000000000,152.0000000000,31.0000000000
1717675226007,374.0000000000,257.0000000000,52.0000000000,96.0000000000,152.0000000000,30.0000000000
1717675226007,371.0000000000,255.0000000000,51.0000000000,96.0000000000,152.0000000000,30.0000000000
1717675226023,368.0000000000,253.0000000000,51.0000000000,95.0000000000,150.0000000000,30.0000000000
1717675226024,365.0000000000,251.0000000000,51.0000000000,95.0000000000,149.0000000000,30.0000000000
1717675226024,363.0000000000,249.0000000000,51.0000000000,94.0000000000,148.0000000000,30.0000000000
1717675226024,359.0000000000,248.0000000000,51.0000000000,94.0000000000,147.0000000000,30.0000000000
1717675226024,358.0000000000,247.0000000000,50.0000000000,93.0000000000,147.0000000000,30.0000000000
1717675226025,355.0000000000,244.0000000000,50.0000000000,93.0000000000,219.0000000000,29.0000000000
1717675226025,352.0000000000,243.0000000000,50.0000000000,92.0000000000,222.0000000000,29.0000000000
1717675226025,350.0000000000,241.0000000000,49.0000000000,92.0000000000,220.0000000000,29.0000000000
1717675226025,348.0000000000,240.0000000000,49.0000000000,92.0000000000,219.0000000000,28.0000000000
1717675226025,345.0000000000,238.0000000000,49.0000000000,91.0000000000,216.0000000000,28.0000000000
1717675226025,343.0000000000,236.0000000000,49.0000000000,90.0000000000,216.0000000000,28.0000000000
1717675226040,339.0000000000,236.0000000000,48.0000000000,89.0000000000,214.0000000000,28.0000000000
1717675226041,337.0000000000,234.0000000000,48.0000000000,89.0000000000,212.0000000000,28.0000000000
1717675226041,335.0000000000,231.0000000000,48.0000000000,89.0000000000,211.0000000000,67.0000000000
1717675226041,460.0000000000,231.0000000000,48.0000000000,88.0000000000,209.0000000000,66.0000000000
1717675226041,487.0000000000,230.0000000000,48.0000000000,88.0000000000,208.0000000000,65.0000000000
1717675226041,483.0000000000,227.0000000000,47.0000000000,87.0000000000,207.0000000000,65.0000000000
1717675226041,479.0000000000,227.0000000000,47.0000000000,87.0000000000,205.0000000000,64.0000000000
1717675226041,473.0000000000,225.0000000000,46.0000000000,86.0000000000,204.0000000000,64.0000000000
1717675226041,470.0000000000,224.0000000000,46.0000000000,86.0000000000,203.0000000000,63.0000000000
1717675226058,465.0000000000,223.0000000000,46.0000000000,86.0000000000,201.0000000000,63.0000000000
1717675226060,461.0000000000,220.0000000000,45.0000000000,85.0000000000,199.0000000000,63.0000000000
1717675226061,457.0000000000,220.0000000000,45.0000000000,111.0000000000,199.0000000000,62.0000000000
1717675226062,452.0000000000,218.0000000000,45.0000000000,124.0000000000,198.0000000000,62.0000000000
1717675226063,449.0000000000,217.0000000000,45.0000000000,123.0000000000,196.0000000000,62.0000000000
1717675226064,445.0000000000,216.0000000000,45.0000000000,122.0000000000,195.0000000000,60.0000000000
1717675226064,441.0000000000,214.0000000000,47.0000000000,121.0000000000,193.0000000000,60.0000000000
1717675226066,441.0000000000,212.0000000000,47.0000000000,120.0000000000,193.0000000000,60.0000000000
1717675226067,438.0000000000,211.0000000000,48.0000000000,120.0000000000,192.0000000000,60.0000000000
1717675226067,433.0000000000,211.0000000000,47.0000000000,118.0000000000,190.0000000000,59.0000000000
1717675226067,430.0000000000,209.0000000000,47.0000000000,118.0000000000,189.0000000000,59.0000000000
1717675226068,425.0000000000,207.0000000000,47.0000000000,117.0000000000,188.0000000000,59.0000000000
1717675226108,423.0000000000,206.0000000000,46.0000000000,116.0000000000,187.0000000000,58.0000000000
1717675226109,419.0000000000,205.0000000000,46.0000000000,115.0000000000,185.0000000000,57.0000000000
1717675226109,415.0000000000,231.0000000000,46.0000000000,114.0000000000,184.0000000000,57.0000000000
1717675226109,412.0000000000,259.0000000000,45.0000000000,113.0000000000,184.0000000000,56.0000000000
1717675226109,409.0000000000,255.0000000000,45.0000000000,112.0000000000,182.0000000000,56.0000000000
1717675226109,406.0000000000,254.0000000000,44.0000000000,112.0000000000,180.0000000000,56.0000000000
1717675226109,403.0000000000,252.0000000000,44.0000000000,112.0000000000,179.0000000000,56.0000000000
1717675226109,399.0000000000,251.0000000000,44.0000000000,111.0000000000,179.0000000000,56.0000000000
1717675226110,396.0000000000,248.0000000000,44.0000000000,110.0000000000,177.0000000000,56.0000000000
1717675226110,392.0000000000,248.0000000000,43.0000000000,109.0000000000,176.0000000000,54.0000000000
1717675226110,390.0000000000,244.0000000000,43.0000000000,108.0000000000,175.0000000000,55.0000000000
1717675226110,387.0000000000,243.0000000000,43.0000000000,108.0000000000,174.0000000000,54.0000000000
1717675226110,384.0000000000,241.0000000000,42.0000000000,107.0000000000,207.0000000000,54.0000000000
1717675226110,381.0000000000,240.0000000000,43.0000000000,105.0000000000,206.0000000000,53.0000000000
1717675226110,377.0000000000,238.0000000000,42.0000000000,105.0000000000,204.0000000000,52.0000000000
1717675226111,376.0000000000,236.0000000000,41.0000000000,104.0000000000,203.0000000000,52.0000000000
1717675226111,372.0000000000,235.0000000000,41.0000000000,103.0000000000,201.0000000000,51.0000000000
1717675226111,369.0000000000,233.0000000000,41.0000000000,103.0000000000,199.0000000000,52.0000000000
1717675226111,367.0000000000,231.0000000000,41.0000000000,103.0000000000,199.0000000000,51.0000000000
1717675226111,364.0000000000,230.0000000000,41.0000000000,102.0000000000,198.0000000000,51.0000000000
1717675226112,361.0000000000,229.0000000000,40.0000000000,102.0000000000,195.0000000000,50.0000000000
1717675226112,359.0000000000,227.0000000000,39.0000000000,100.0000000000,194.0000000000,50.0000000000
1717675226112,356.0000000000,225.0000000000,39.0000000000,99.0000000000,193.0000000000,51.0000000000
1717675226112,353.0000000000,224.0000000000,39.0000000000,99.0000000000,192.0000000000,51.0000000000
1717675226208,352.0000000000,223.0000000000,39.0000000000,99.0000000000,191.0000000000,51.0000000000
1717675226208,349.0000000000,221.0000000000,39.0000000000,98.0000000000,190.0000000000,51.0000000000
1717675226209,347.0000000000,220.0000000000,39.0000000000,97.0000000000,189.0000000000,51.0000000000
1717675226209,344.0000000000,219.0000000000,39.0000000000,97.0000000000,188.0000000000,50.0000000000
1717675226209,342.0000000000,217.0000000000,39.0000000000,96.0000000000,187.0000000000,50.0000000000
1717675226209,339.0000000000,216.0000000000,39.0000000000,96.0000000000,184.0000000000,49.0000000000
1717675226209,337.0000000000,215.0000000000,38.0000000000,96.0000000000,184.0000000000,49.0000000000
1717675226209,335.0000000000,212.0000000000,38.0000000000,95.0000000000,183.0000000000,49.0000000000
1717675226210,333.0000000000,211.0000000000,38.0000000000,94.0000000000,181.0000000000,49.0000000000
1717675226210,331.0000000000,210.0000000000,38.0000000000,94.0000000000,180.0000000000,48.0000000000
1717675226210,327.0000000000,209.0000000000,38.0000000000,93.0000000000,179.0000000000,48.0000000000
1717675226210,327.0000000000,207.0000000000,37.0000000000,181.0000000000,179.0000000000,48.0000000000
1717675226210,324.0000000000,207.0000000000,36.0000000000,178.0000000000,177.0000000000,47.0000000000
1717675226210,322.0000000000,205.0000000000,36.0000000000,177.0000000000,176.0000000000,47.0000000000
1717675226211,319.0000000000,204.0000000000,36.0000000000,176.0000000000,175.0000000000,47.0000000000
1717675226211,318.0000000000,203.0000000000,35.0000000000,174.0000000000,179.0000000000,47.0000000000
1717675226211,316.0000000000,201.0000000000,35.0000000000,172.0000000000,177.0000000000,46.0000000000
1717675226212,313.0000000000,199.0000000000,35.0000000000,171.0000000000,176.0000000000,46.0000000000
1717675226212,312.0000000000,199.0000000000,35.0000000000,170.0000000000,175.0000000000,46.0000000000
1717675226212,318.0000000000,198.0000000000,35.0000000000,169.0000000000,174.0000000000,46.0000000000
1717675226212,316.0000000000,196.0000000000,35.0000000000,167.0000000000,172.0000000000,45.0000000000
1717675226212,312.0000000000,195.0000000000,35.0000000000,167.0000000000,172.0000000000,45.0000000000
1717675226213,310.0000000000,194.0000000000,35.0000000000,166.0000000000,171.0000000000,44.0000000000
1717675226213,308.0000000000,193.0000000000,35.0000000000,164.0000000000,169.0000000000,44.0000000000
1717675226213,306.0000000000,192.0000000000,34.0000000000,163.0000000000,167.0000000000,44.0000000000
1717675226213,304.0000000000,191.0000000000,34.0000000000,162.0000000000,167.0000000000,44.0000000000
1717675226213,302.0000000000,190.0000000000,34.0000000000,161.0000000000,167.0000000000,44.0000000000
1717675226213,300.0000000000,189.0000000000,33.0000000000,159.0000000000,166.0000000000,44.0000000000
1717675226214,297.0000000000,188.0000000000,33.0000000000,159.0000000000,164.0000000000,43.0000000000
1717675226214,295.0000000000,187.0000000000,33.0000000000,157.0000000000,163.0000000000,43.0000000000
1717675226214,294.0000000000,185.0000000000,33.0000000000,156.0000000000,162.0000000000,42.0000000000
1717675226215,291.0000000000,184.0000000000,33.0000000000,156.0000000000,161.0000000000,41.0000000000
1717675226215,290.0000000000,183.0000000000,32.0000000000,155.0000000000,160.0000000000,41.0000000000
1717675226215,287.0000000000,182.0000000000,32.0000000000,153.0000000000,159.0000000000,41.0000000000
1717675226215,287.0000000000,181.0000000000,31.0000000000,152.0000000000,159.0000000000,40.0000000000
1717675226216,284.0000000000,179.0000000000,31.0000000000,152.0000000000,158.0000000000,41.0000000000
1717675226216,283.0000000000,179.0000000000,31.0000000000,151.0000000000,156.0000000000,39.0000000000
1717675226216,281.0000000000,178.0000000000,31.0000000000,150.0000000000,156.0000000000,40.0000000000
1717675226216,279.0000000000,177.0000000000,31.0000000000,148.0000000000,155.0000000000,39.0000000000
1717675226217,278.0000000000,176.0000000000,31.0000000000,147.0000000000,153.0000000000,39.0000000000
1717675226217,275.0000000000,175.0000000000,31.0000000000,147.0000000000,152.0000000000,39.0000000000
1717675226217,273.0000000000,174.0000000000,31.0000000000,145.0000000000,152.0000000000,39.0000000000
1717675226217,271.0000000000,173.0000000000,31.0000000000,144.0000000000,152.0000000000,39.0000000000
1717675226218,271.0000000000,172.0000000000,31.0000000000,143.0000000000,151.0000000000,39.0000000000
1717675226218,269.0000000000,171.0000000000,30.0000000000,143.0000000000,150.0000000000,38.0000000000
1717675226218,267.0000000000,170.0000000000,30.0000000000,142.0000000000,148.0000000000,39.0000000000
1717675226218,265.0000000000,169.0000000000,30.0000000000,140.0000000000,147.0000000000,38.0000000000
1717675226218,263.0000000000,167.0000000000,30.0000000000,140.0000000000,147.0000000000,38.0000000000
1717675226219,262.0000000000,167.0000000000,30.0000000000,140.0000000000,145.0000000000,38.0000000000
1717675226219,260.0000000000,166.0000000000,30.0000000000,139.0000000000,285.0000000000,37.0000000000
1717675226219,259.0000000000,166.0000000000,29.0000000000,137.0000000000,280.0000000000,37.0000000000
1717675226219,257.0000000000,164.0000000000,28.0000000000,136.0000000000,278.0000000000,36.0000000000
1717675226219,255.0000000000,163.0000000000,29.0000000000,135.0000000000,275.0000000000,36.0000000000
1717675226220,254.0000000000,163.0000000000,28.0000000000,135.0000000000,273.0000000000,36.0000000000
1717675226249,252.0000000000,161.0000000000,28.0000000000,135.0000000000,271.0000000000,36.0000000000
1717675226251,252.0000000000,160.0000000000,28.0000000000,134.0000000000,270.0000000000,35.0000000000
1717675226252,249.0000000000,159.0000000000,30.0000000000,132.0000000000,268.0000000000,35.0000000000
1717675226253,248.0000000000,159.0000000000,30.0000000000,131.0000000000,266.0000000000,35.0000000000
1717675226253,248.0000000000,158.0000000000,29.0000000000,131.0000000000,263.0000000000,35.0000000000
1717675226254,245.0000000000,157.0000000000,29.0000000000,129.0000000000,262.0000000000,35.0000000000
1717675226256,243.0000000000,156.0000000000,29.0000000000,129.0000000000,259.0000000000,35.0000000000
1717675226256,243.0000000000,155.0000000000,28.0000000000,128.0000000000,258.0000000000,34.0000000000
1717675226257,242.0000000000,154.0000000000,28.0000000000,127.0000000000,255.0000000000,34.0000000000
1717675226258,241.0000000000,153.0000000000,28.0000000000,127.0000000000,255.0000000000,34.0000000000
1717675226259,240.0000000000,153.0000000000,28.0000000000,126.0000000000,252.0000000000,34.0000000000
1717675226260,238.0000000000,152.0000000000,28.0000000000,125.0000000000,251.0000000000,33.0000000000
1717675226261,236.0000000000,151.0000000000,27.0000000000,124.0000000000,249.0000000000,33.0000000000
1717675226261,235.0000000000,150.0000000000,27.0000000000,124.0000000000,248.0000000000,33.0000000000
1717675226262,233.0000000000,249.0000000000,28.0000000000,123.0000000000,246.0000000000,33.0000000000
1717675226263,231.0000000000,248.0000000000,28.0000000000,122.0000000000,244.0000000000,33.0000000000
1717675226264,231.0000000000,245.0000000000,27.0000000000,121.0000000000,243.0000000000,33.0000000000
1717675226264,230.0000000000,243.0000000000,27.0000000000,120.0000000000,241.0000000000,32.0000000000
1717675226265,228.0000000000,241.0000000000,27.0000000000,120.0000000000,240.0000000000,31.0000000000
1717675226266,227.0000000000,240.0000000000,27.0000000000,119.0000000000,239.0000000000,31.0000000000
1717675226267,225.0000000000,238.0000000000,27.0000000000,119.0000000000,236.0000000000,31.0000000000
1717675226268,224.0000000000,236.0000000000,26.0000000000,118.0000000000,236.0000000000,31.0000000000
1717675226268,223.0000000000,235.0000000000,26.0000000000,117.0000000000,233.0000000000,31.0000000000
1717675226270,222.0000000000,232.0000000000,25.0000000000,116.0000000000,231.0000000000,31.0000000000
1717675226271,220.0000000000,231.0000000000,25.0000000000,115.0000000000,231.0000000000,31.0000000000
1717675226271,219.0000000000,230.0000000000,25.0000000000,115.0000000000,229.0000000000,31.0000000000
1717675226272,217.0000000000,227.0000000000,25.0000000000,114.0000000000,227.0000000000,30.0000000000
1717675226272,216.0000000000,226.0000000000,24.0000000000,113.0000000000,226.0000000000,30.0000000000
1717675226299,216.0000000000,225.0000000000,25.0000000000,113.0000000000,225.0000000000,56.0000000000
1717675226300,214.0000000000,223.0000000000,25.0000000000,112.0000000000,224.0000000000,56.0000000000
1717675226300,213.0000000000,221.0000000000,24.0000000000,112.0000000000,222.0000000000,56.0000000000
1717675226301,211.0000000000,220.0000000000,24.0000000000,111.0000000000,220.0000000000,56.0000000000
1717675226301,211.0000000000,219.0000000000,43.0000000000,110.0000000000,219.0000000000,55.0000000000
1717675226301,209.0000000000,217.0000000000,42.0000000000,109.0000000000,218.0000000000,55.0000000000
1717675226301,207.0000000000,216.0000000000,41.0000000000,108.0000000000,216.0000000000,54.0000000000
1717675226301,207.0000000000,214.0000000000,41.0000000000,108.0000000000,215.0000000000,54.0000000000
1717675226301,205.0000000000,212.0000000000,41.0000000000,108.0000000000,214.0000000000,53.0000000000
1717675226302,204.0000000000,211.0000000000,41.0000000000,108.0000000000,212.0000000000,53.0000000000
1717675226302,204.0000000000,210.0000000000,39.0000000000,107.0000000000,211.0000000000,52.0000000000
1717675226302,203.0000000000,208.0000000000,39.0000000000,106.0000000000,209.0000000000,52.0000000000
1717675226302,201.0000000000,207.0000000000,39.0000000000,105.0000000000,208.0000000000,51.0000000000
1717675226302,199.0000000000,206.0000000000,39.0000000000,105.0000000000,207.0000000000,51.0000000000
1717675226329,318.0000000000,204.0000000000,39.0000000000,103.0000000000,246.0000000000,51.0000000000
1717675226330,315.0000000000,204.0000000000,39.0000000000,103.0000000000,243.0000000000,51.0000000000
1717675226331,312.0000000000,202.0000000000,39.0000000000,103.0000000000,241.0000000000,50.0000000000
1717675226332,308.0000000000,200.0000000000,39.0000000000,103.0000000000,240.0000000000,50.0000000000
1717675226332,306.0000000000,199.0000000000,38.0000000000,102.0000000000,238.0000000000,49.0000000000
1717675226333,304.0000000000,198.0000000000,39.0000000000,100.0000000000,236.0000000000,49.0000000000
1717675226333,302.0000000000,197.0000000000,38.0000000000,100.0000000000,233.0000000000,49.0000000000
1717675226334,300.0000000000,195.0000000000,38.0000000000,100.0000000000,231.0000000000,48.0000000000
1717675226335,299.0000000000,195.0000000000,37.0000000000,99.0000000000,231.0000000000,48.0000000000
1717675226335,295.0000000000,193.0000000000,37.0000000000,99.0000000000,228.0000000000,48.0000000000
1717675226336,294.0000000000,192.0000000000,36.0000000000,98.0000000000,227.0000000000,48.0000000000
1717675226336,292.0000000000,191.0000000000,36.0000000000,97.0000000000,227.0000000000,47.0000000000
1717675226337,316.0000000000,193.0000000000,37.0000000000,97.0000000000,224.0000000000,47.0000000000
1717675226337,312.0000000000,192.0000000000,36.0000000000,96.0000000000,223.0000000000,47.0000000000
1717675226338,310.0000000000,191.0000000000,36.0000000000,96.0000000000,222.0000000000,47.0000000000
1717675226338,307.0000000000,190.0000000000,35.0000000000,96.0000000000,220.0000000000,46.0000000000
1717675226339,305.0000000000,188.0000000000,35.0000000000,95.0000000000,219.0000000000,46.0000000000
1717675226339,303.0000000000,188.0000000000,35.0000000000,95.0000000000,217.0000000000,45.0000000000
1717675226339,300.0000000000,185.0000000000,35.0000000000,94.0000000000,216.0000000000,45.0000000000
1717675226339,299.0000000000,185.0000000000,35.0000000000,94.0000000000,215.0000000000,45.0000000000
1717675226356,295.0000000000,184.0000000000,35.0000000000,93.0000000000,213.0000000000,45.0000000000
1717675226357,294.0000000000,183.0000000000,35.0000000000,92.0000000000,212.0000000000,44.0000000000
1717675226357,291.0000000000,182.0000000000,34.0000000000,92.0000000000,211.0000000000,44.0000000000
1717675226357,289.0000000000,182.0000000000,33.0000000000,91.0000000000,210.0000000000,44.0000000000
1717675226357,287.0000000000,180.0000000000,34.0000000000,91.0000000000,208.0000000000,44.0000000000
1717675226357,285.0000000000,179.0000000000,33.0000000000,91.0000000000,207.0000000000,67.0000000000
1717675226357,284.0000000000,178.0000000000,33.0000000000,89.0000000000,206.0000000000,67.0000000000
1717675226357,281.0000000000,177.0000000000,33.0000000000,89.0000000000,204.0000000000,65.0000000000
1717675226358,280.0000000000,176.0000000000,32.0000000000,89.0000000000,204.0000000000,65.0000000000
1717675226358,278.0000000000,176.0000000000,32.0000000000,88.0000000000,202.0000000000,65.0000000000
1717675226358,276.0000000000,175.0000000000,32.0000000000,88.0000000000,201.0000000000,65.0000000000
1717675226378,274.0000000000,173.0000000000,32.0000000000,87.0000000000,199.0000000000,64.0000000000
1717675226380,272.0000000000,172.0000000000,32.0000000000,87.0000000000,199.0000000000,63.0000000000
1717675226381,270.0000000000,171.0000000000,49.0000000000,86.0000000000,198.0000000000,63.0000000000
1717675226382,268.0000000000,171.0000000000,48.0000000000,86.0000000000,196.0000000000,63.0000000000
1717675226383,267.0000000000,169.0000000000,48.0000000000,86.0000000000,195.0000000000,63.0000000000
1717675226384,264.0000000000,167.0000000000,48.0000000000,84.0000000000,195.0000000000,62.0000000000
1717675226385,263.0000000000,167.0000000000,48.0000000000,84.0000000000,247.0000000000,62.0000000000
1717675226386,262.0000000000,167.0000000000,47.0000000000,83.0000000000,295.0000000000,62.0000000000
1717675226386,259.0000000000,166.0000000000,47.0000000000,83.0000000000,294.0000000000,60.0000000000
1717675226387,258.0000000000,164.0000000000,46.0000000000,83.0000000000,291.0000000000,60.0000000000
1717675226388,255.0000000000,163.0000000000,46.0000000000,83.0000000000,289.0000000000,60.0000000000
1717675226390,255.0000000000,163.0000000000,46.0000000000,107.0000000000,287.0000000000,60.0000000000
1717675226391,253.0000000000,162.0000000000,45.0000000000,106.0000000000,284.0000000000,60.0000000000
1717675226391,252.0000000000,161.0000000000,46.0000000000,105.0000000000,283.0000000000,59.0000000000
1717675226392,249.0000000000,159.0000000000,45.0000000000,164.0000000000,280.0000000000,59.0000000000
1717675226393,248.0000000000,159.0000000000,44.0000000000,163.0000000000,279.0000000000,58.0000000000
1717675226394,246.0000000000,158.0000000000,44.0000000000,161.0000000000,276.0000000000,57.0000000000
1717675226395,244.0000000000,156.0000000000,44.0000000000,159.0000000000,275.0000000000,57.0000000000
1717675226395,273.0000000000,156.0000000000,44.0000000000,159.0000000000,272.0000000000,56.0000000000
1717675226426,318.0000000000,155.0000000000,43.0000000000,158.0000000000,271.0000000000,56.0000000000
1717675226428,315.0000000000,154.0000000000,43.0000000000,156.0000000000,269.0000000000,56.0000000000
1717675226428,312.0000000000,188.0000000000,43.0000000000,156.0000000000,267.0000000000,56.0000000000
1717675226428,310.0000000000,188.0000000000,43.0000000000,155.0000000000,264.0000000000,56.0000000000
1717675226429,307.0000000000,187.0000000000,43.0000000000,153.0000000000,263.0000000000,55.0000000000
1717675226429,304.0000000000,184.0000000000,42.0000000000,152.0000000000,262.0000000000,55.0000000000
1717675226429,302.0000000000,184.0000000000,41.0000000000,152.0000000000,259.0000000000,55.0000000000
1717675226429,300.0000000000,183.0000000000,41.0000000000,151.0000000000,258.0000000000,54.0000000000
1717675226430,297.0000000000,181.0000000000,41.0000000000,150.0000000000,255.0000000000,53.0000000000
1717675226430,295.0000000000,179.0000000000,40.0000000000,148.0000000000,254.0000000000,53.0000000000
1717675226430,294.0000000000,179.0000000000,39.0000000000,149.0000000000,253.0000000000,53.0000000000
1717675226431,291.0000000000,177.0000000000,39.0000000000,147.0000000000,251.0000000000,52.0000000000
1717675226431,288.0000000000,176.0000000000,39.0000000000,147.0000000000,249.0000000000,52.0000000000
1717675226431,287.0000000000,175.0000000000,39.0000000000,145.0000000000,248.0000000000,51.0000000000
1717675226431,284.0000000000,174.0000000000,39.0000000000,144.0000000000,247.0000000000,51.0000000000
1717675226432,283.0000000000,173.0000000000,39.0000000000,143.0000000000,244.0000000000,51.0000000000
1717675226432,280.0000000000,172.0000000000,39.0000000000,143.0000000000,243.0000000000,51.0000000000
1717675226433,279.0000000000,171.0000000000,39.0000000000,142.0000000000,241.0000000000,51.0000000000
1717675226433,276.0000000000,169.0000000000,39.0000000000,141.0000000000,240.0000000000,50.0000000000
1717675226456,274.0000000000,167.0000000000,38.0000000000,140.0000000000,238.0000000000,50.0000000000
1717675226457,272.0000000000,167.0000000000,38.0000000000,140.0000000000,350.0000000000,49.0000000000
1717675226457,270.0000000000,166.0000000000,38.0000000000,139.0000000000,344.0000000000,49.0000000000
1717675226457,268.0000000000,165.0000000000,37.0000000000,137.0000000000,340.0000000000,49.0000000000
1717675226458,267.0000000000,164.0000000000,37.0000000000,135.0000000000,337.0000000000,48.0000000000
1717675226458,264.0000000000,163.0000000000,37.0000000000,135.0000000000,335.0000000000,48.0000000000
1717675226458,263.0000000000,161.0000000000,37.0000000000,135.0000000000,333.0000000000,48.0000000000
1717675226458,262.0000000000,161.0000000000,36.0000000000,134.0000000000,330.0000000000,48.0000000000
1717675226459,259.0000000000,159.0000000000,36.0000000000,133.0000000000,327.0000000000,48.0000000000
1717675226459,257.0000000000,159.0000000000,35.0000000000,131.0000000000,325.0000000000,47.0000000000
1717675226459,255.0000000000,158.0000000000,35.0000000000,131.0000000000,323.0000000000,47.0000000000
1717675226460,254.0000000000,156.0000000000,35.0000000000,130.0000000000,319.0000000000,46.0000000000
1717675226460,252.0000000000,155.0000000000,35.0000000000,130.0000000000,318.0000000000,46.0000000000
1717675226460,251.0000000000,155.0000000000,35.0000000000,129.0000000000,316.0000000000,46.0000000000
1717675226480,249.0000000000,153.0000000000,35.0000000000,127.0000000000,313.0000000000,45.0000000000
1717675226481,248.0000000000,153.0000000000,38.0000000000,127.0000000000,311.0000000000,46.0000000000
1717675226481,246.0000000000,152.0000000000,39.0000000000,126.0000000000,308.0000000000,45.0000000000
1717675226481,244.0000000000,152.0000000000,39.0000000000,126.0000000000,307.0000000000,44.0000000000
1717675226482,243.0000000000,150.0000000000,38.0000000000,124.0000000000,304.0000000000,44.0000000000
1717675226482,241.0000000000,149.0000000000,38.0000000000,124.0000000000,303.0000000000,44.0000000000
1717675226482,240.0000000000,148.0000000000,38.0000000000,123.0000000000,300.0000000000,44.0000000000
1717675226482,238.0000000000,147.0000000000,37.0000000000,122.0000000000,299.0000000000,44.0000000000
1717675226482,236.0000000000,147.0000000000,37.0000000000,121.0000000000,295.0000000000,43.0000000000
1717675226482,235.0000000000,145.0000000000,37.0000000000,120.0000000000,295.0000000000,43.0000000000
1717675226482,233.0000000000,145.0000000000,36.0000000000,120.0000000000,292.0000000000,43.0000000000
1717675226501,231.0000000000,217.0000000000,39.0000000000,120.0000000000,290.0000000000,42.0000000000
1717675226502,230.0000000000,216.0000000000,39.0000000000,118.0000000000,287.0000000000,42.0000000000
1717675226502,228.0000000000,214.0000000000,39.0000000000,118.0000000000,287.0000000000,42.0000000000
1717675226503,227.0000000000,211.0000000000,38.0000000000,117.0000000000,284.0000000000,41.0000000000
1717675226503,225.0000000000,211.0000000000,38.0000000000,116.0000000000,282.0000000000,41.0000000000
1717675226503,224.0000000000,209.0000000000,38.0000000000,115.0000000000,280.0000000000,41.0000000000
1717675226503,223.0000000000,207.0000000000,38.0000000000,115.0000000000,279.0000000000,39.0000000000
1717675226504,222.0000000000,206.0000000000,37.0000000000,114.0000000000,276.0000000000,39.0000000000
1717675226504,220.0000000000,205.0000000000,36.0000000000,113.0000000000,275.0000000000,39.0000000000
1717675226504,219.0000000000,204.0000000000,36.0000000000,113.0000000000,273.0000000000,39.0000000000
1717675226505,217.0000000000,201.0000000000,36.0000000000,112.0000000000,271.0000000000,39.0000000000
1717675226505,216.0000000000,200.0000000000,35.0000000000,111.0000000000,270.0000000000,39.0000000000
1717675226506,215.0000000000,199.0000000000,36.0000000000,110.0000000000,268.0000000000,39.0000000000
1717675226540,213.0000000000,198.0000000000,36.0000000000,110.0000000000,267.0000000000,39.0000000000
1717675226541,212.0000000000,196.0000000000,35.0000000000,109.0000000000,264.0000000000,39.0000000000
1717675226542,211.0000000000,195.0000000000,35.0000000000,108.0000000000,263.0000000000,38.0000000000
1717675226542,209.0000000000,194.0000000000,35.0000000000,108.0000000000,261.0000000000,38.0000000000
1717675226542,207.0000000000,192.0000000000,35.0000000000,107.0000000000,259.0000000000,38.0000000000
1717675226543,207.0000000000,192.0000000000,34.0000000000,107.0000000000,258.0000000000,38.0000000000
1717675226543,205.0000000000,190.0000000000,34.0000000000,105.0000000000,255.0000000000,38.0000000000
1717675226543,204.0000000000,188.0000000000,34.0000000000,105.0000000000,255.0000000000,38.0000000000
1717675226543,204.0000000000,188.0000000000,34.0000000000,103.0000000000,253.0000000000,36.0000000000
1717675226544,201.0000000000,187.0000000000,34.0000000000,118.0000000000,252.0000000000,36.0000000000
1717675226544,199.0000000000,185.0000000000,33.0000000000,116.0000000000,250.0000000000,36.0000000000
1717675226544,199.0000000000,184.0000000000,33.0000000000,115.0000000000,248.0000000000,35.0000000000
1717675226544,199.0000000000,183.0000000000,33.0000000000,115.0000000000,248.0000000000,36.0000000000
1717675226545,198.0000000000,182.0000000000,33.0000000000,113.0000000000,246.0000000000,35.0000000000
1717675226545,195.0000000000,179.0000000000,33.0000000000,113.0000000000,243.0000000000,35.0000000000
1717675226545,195.0000000000,179.0000000000,32.0000000000,112.0000000000,243.0000000000,35.0000000000
1717675226546,194.0000000000,178.0000000000,31.0000000000,111.0000000000,241.0000000000,35.0000000000
1717675226546,193.0000000000,177.0000000000,32.0000000000,111.0000000000,239.0000000000,35.0000000000
1717675226546,192.0000000000,176.0000000000,32.0000000000,110.0000000000,238.0000000000,34.0000000000
1717675226546,191.0000000000,174.0000000000,31.0000000000,109.0000000000,236.0000000000,35.0000000000
1717675226580,190.0000000000,174.0000000000,31.0000000000,108.0000000000,236.0000000000,34.0000000000
1717675226584,188.0000000000,172.0000000000,31.0000000000,108.0000000000,233.0000000000,34.0000000000
1717675226585,188.0000000000,171.0000000000,31.0000000000,107.0000000000,231.0000000000,33.0000000000
1717675226586,187.0000000000,171.0000000000,31.0000000000,105.0000000000,231.0000000000,33.0000000000
1717675226586,185.0000000000,169.0000000000,31.0000000000,105.0000000000,230.0000000000,33.0000000000
1717675226586,184.0000000000,167.0000000000,31.0000000000,103.0000000000,228.0000000000,33.0000000000
1717675226587,184.0000000000,167.0000000000,31.0000000000,103.0000000000,227.0000000000,33.0000000000
1717675226587,183.0000000000,166.0000000000,30.0000000000,103.0000000000,225.0000000000,32.0000000000
1717675226588,182.0000000000,165.0000000000,30.0000000000,103.0000000000,224.0000000000,31.0000000000
1717675226588,180.0000000000,164.0000000000,30.0000000000,102.0000000000,223.0000000000,31.0000000000
1717675226588,179.0000000000,163.0000000000,30.0000000000,102.0000000000,222.0000000000,31.0000000000
1717675226589,178.0000000000,162.0000000000,29.0000000000,101.0000000000,220.0000000000,31.0000000000
1717675226589,177.0000000000,161.0000000000,29.0000000000,100.0000000000,219.0000000000,31.0000000000
1717675226589,176.0000000000,159.0000000000,29.0000000000,99.0000000000,217.0000000000,31.0000000000
1717675226590,175.0000000000,159.0000000000,29.0000000000,99.0000000000,216.0000000000,31.0000000000
1717675226590,175.0000000000,158.0000000000,28.0000000000,98.0000000000,216.0000000000,31.0000000000
1717675226590,174.0000000000,157.0000000000,28.0000000000,97.0000000000,214.0000000000,31.0000000000
1717675226590,246.0000000000,156.0000000000,28.0000000000,97.0000000000,212.0000000000,31.0000000000
1717675226591,242.0000000000,238.0000000000,28.0000000000,96.0000000000,211.0000000000,30.0000000000
1717675226591,240.0000000000,240.0000000000,28.0000000000,96.0000000000,210.0000000000,30.0000000000
1717675226591,238.0000000000,237.0000000000,28.0000000000,95.0000000000,209.0000000000,30.0000000000
1717675226591,236.0000000000,236.0000000000,28.0000000000,95.0000000000,207.0000000000,30.0000000000
1717675226591,295.0000000000,234.0000000000,28.0000000000,94.0000000000,207.0000000000,30.0000000000
1717675226592,304.0000000000,231.0000000000,28.0000000000,116.0000000000,206.0000000000,30.0000000000
1717675226614,300.0000000000,231.0000000000,27.0000000000,201.0000000000,204.0000000000,29.0000000000
1717675226615,298.0000000000,229.0000000000,27.0000000000,199.0000000000,203.0000000000,29.0000000000
1717675226615,295.0000000000,227.0000000000,27.0000000000,198.0000000000,201.0000000000,28.0000000000
1717675226615,294.0000000000,225.0000000000,27.0000000000,196.0000000000,201.0000000000,29.0000000000
1717675226615,291.0000000000,224.0000000000,27.0000000000,195.0000000000,199.0000000000,28.0000000000
1717675226616,289.0000000000,223.0000000000,27.0000000000,193.0000000000,199.0000000000,28.0000000000
1717675226616,286.0000000000,220.0000000000,27.0000000000,192.0000000000,197.0000000000,28.0000000000
1717675226616,284.0000000000,219.0000000000,26.0000000000,190.0000000000,196.0000000000,28.0000000000
1717675226616,281.0000000000,217.0000000000,26.0000000000,189.0000000000,195.0000000000,28.0000000000
1717675226616,280.0000000000,217.0000000000,26.0000000000,188.0000000000,251.0000000000,39.0000000000
1717675226617,278.0000000000,215.0000000000,25.0000000000,186.0000000000,248.0000000000,44.0000000000
1717675226617,275.0000000000,214.0000000000,25.0000000000,184.0000000000,247.0000000000,43.0000000000
1717675226636,273.0000000000,212.0000000000,25.0000000000,184.0000000000,244.0000000000,43.0000000000
1717675226637,271.0000000000,211.0000000000,25.0000000000,182.0000000000,243.0000000000,42.0000000000
1717675226637,270.0000000000,209.0000000000,24.0000000000,180.0000000000,241.0000000000,42.0000000000
1717675226637,268.0000000000,207.0000000000,25.0000000000,179.0000000000,240.0000000000,41.0000000000
1717675226637,266.0000000000,207.0000000000,25.0000000000,178.0000000000,238.0000000000,40.0000000000
1717675226637,263.0000000000,205.0000000000,24.0000000000,177.0000000000,236.0000000000,47.0000000000
1717675226638,262.0000000000,204.0000000000,24.0000000000,176.0000000000,235.0000000000,58.0000000000
1717675226638,260.0000000000,203.0000000000,24.0000000000,175.0000000000,233.0000000000,57.0000000000
1717675226638,258.0000000000,201.0000000000,24.0000000000,174.0000000000,231.0000000000,57.0000000000
1717675226638,257.0000000000,199.0000000000,24.0000000000,172.0000000000,230.0000000000,57.0000000000
1717675226638,255.0000000000,198.0000000000,24.0000000000,172.0000000000,228.0000000000,56.0000000000
1717675226657,253.0000000000,197.0000000000,24.0000000000,171.0000000000,227.0000000000,56.0000000000
1717675226658,252.0000000000,196.0000000000,23.0000000000,169.0000000000,225.0000000000,56.0000000000
1717675226658,249.0000000000,195.0000000000,24.0000000000,167.0000000000,224.0000000000,56.0000000000
1717675226658,248.0000000000,193.0000000000,24.0000000000,167.0000000000,222.0000000000,55.0000000000
1717675226658,246.0000000000,192.0000000000,23.0000000000,166.0000000000,221.0000000000,54.0000000000
1717675226658,244.0000000000,192.0000000000,23.0000000000,164.0000000000,220.0000000000,54.0000000000
