timestamp,Channel 1,Channel 2,Channel 3,Channel 4,Channel 5,Channel 6
1717675247663,7.0000000000,0.0000000000,0.0000000000,122.0000000000,42.0000000000,1.0000000000
1717675247664,7.0000000000,0.0000000000,0.0000000000,121.0000000000,42.0000000000,1.0000000000
1717675247664,6.0000000000,0.0000000000,0.0000000000,121.0000000000,42.0000000000,1.0000000000
1717675247664,7.0000000000,0.0000000000,0.0000000000,120.0000000000,41.0000000000,1.0000000000
1717675247664,7.0000000000,0.0000000000,0.0000000000,120.0000000000,41.0000000000,1.0000000000
1717675247665,7.0000000000,0.0000000000,0.0000000000,120.0000000000,41.0000000000,1.0000000000
1717675247665,7.0000000000,0.0000000000,0.0000000000,120.0000000000,41.0000000000,1.0000000000
1717675247665,7.0000000000,0.0000000000,0.0000000000,118.0000000000,40.0000000000,1.0000000000
1717675247665,7.0000000000,0.0000000000,0.0000000000,118.0000000000,40.0000000000,1.0000000000
1717675247665,7.0000000000,0.0000000000,0.0000000000,118.0000000000,41.0000000000,1.0000000000
1717675247665,7.0000000000,0.0000000000,0.0000000000,117.0000000000,39.0000000000,1.0000000000
1717675247665,7.0000000000,0.0000000000,0.0000000000,116.0000000000,39.0000000000,1.0000000000
1717675247666,7.0000000000,0.0000000000,0.0000000000,115.0000000000,39.0000000000,1.0000000000
1717675247666,7.0000000000,0.0000000000,0.0000000000,115.0000000000,39.0000000000,1.0000000000
1717675247666,7.0000000000,0.0000000000,0.0000000000,115.0000000000,39.0000000000,1.0000000000
1717675247666,7.0000000000,0.0000000000,0.0000000000,114.0000000000,39.0000000000,1.0000000000
1717675247666,6.0000000000,0.0000000000,0.0000000000,114.0000000000,39.0000000000,1.0000000000
1717675247666,7.0000000000,0.0000000000,0.0000000000,114.0000000000,39.0000000000,1.0000000000
1717675247680,6.0000000000,0.0000000000,0.0000000000,113.0000000000,39.0000000000,1.0000000000
1717675247681,7.0000000000,0.0000000000,0.0000000000,112.0000000000,39.0000000000,1.0000000000
1717675247681,6.0000000000,0.0000000000,0.0000000000,112.0000000000,38.0000000000,1.0000000000
1717675247681,7.0000000000,0.0000000000,0.0000000000,112.0000000000,38.0000000000,1.0000000000
1717675247681,7.0000000000,0.0000000000,0.0000000000,111.0000000000,38.0000000000,1.0000000000
1717675247681,7.0000000000,0.0000000000,0.0000000000,111.0000000000,38.0000000000,1.0000000000
1717675247681,6.0000000000,0.0000000000,0.0000000000,110.0000000000,38.0000000000,1.0000000000
1717675247681,7.0000000000,0.0000000000,0.0000000000,110.0000000000,38.0000000000,1.0000000000
1717675247681,7.0000000000,0.0000000000,0.0000000000,109.0000000000,37.0000000000,1.0000000000
1717675247695,6.0000000000,0.0000000000,0.0000000000,109.0000000000,36.0000000000,1.0000000000
1717675247697,6.0000000000,0.0000000000,0.0000000000,108.0000000000,37.0000000000,0.0000000000
1717675247697,7.0000000000,0.0000000000,0.0000000000,108.0000000000,37.0000000000,1.0000000000
1717675247697,7.0000000000,0.0000000000,0.0000000000,108.0000000000,36.0000000000,1.0000000000
1717675247698,6.0000000000,0.0000000000,0.0000000000,107.0000000000,36.0000000000,1.0000000000
1717675247698,6.0000000000,0.0000000000,0.0000000000,107.0000000000,36.0000000000,1.0000000000
1717675247698,7.0000000000,0.0000000000,0.0000000000,106.0000000000,36.0000000000,1.0000000000
1717675247698,7.0000000000,0.0000000000,0.0000000000,106.0000000000,36.0000000000,0.0000000000
1717675247699,7.0000000000,0.0000000000,0.0000000000,105.0000000000,35.0000000000,1.0000000000
1717675247699,7.0000000000,0.0000000000,0.0000000000,105.0000000000,36.0000000000,1.0000000000
1717675247700,7.0000000000,0.0000000000,0.0000000000,104.0000000000,35.0000000000,1.0000000000
1717675247700,7.0000000000,0.0000000000,0.0000000000,103.0000000000,35.0000000000,1.0000000000
1717675247700,7.0000000000,0.0000000000,0.0000000000,103.0000000000,35.0000000000,1.0000000000
1717675247701,7.0000000000,0.0000000000,0.0000000000,103.0000000000,35.0000000000,1.0000000000
1717675247701,6.0000000000,0.0000000000,0.0000000000,103.0000000000,35.0000000000,0.0000000000
1717675247702,6.0000000000,0.0000000000,0.0000000000,103.0000000000,35.0000000000,1.0000000000
1717675247702,7.0000000000,0.0000000000,0.0000000000,102.0000000000,40.0000000000,1.0000000000
1717675247702,6.0000000000,0.0000000000,0.0000000000,102.0000000000,71.0000000000,1.0000000000
1717675247767,7.0000000000,0.0000000000,0.0000000000,102.0000000000,71.0000000000,0.0000000000
1717675247769,7.0000000000,0.0000000000,0.0000000000,100.0000000000,71.0000000000,1.0000000000
1717675247769,7.0000000000,0.0000000000,0.0000000000,100.0000000000,71.0000000000,1.0000000000
1717675247769,7.0000000000,0.0000000000,0.0000000000,99.0000000000,71.0000000000,1.0000000000
1717675247769,6.0000000000,0.0000000000,0.0000000000,99.0000000000,70.0000000000,1.0000000000
1717675247770,7.0000000000,0.0000000000,0.0000000000,99.0000000000,70.0000000000,1.0000000000
1717675247770,7.0000000000,0.0000000000,0.0000000000,99.0000000000,70.0000000000,1.0000000000
1717675247770,7.0000000000,0.0000000000,0.0000000000,99.0000000000,68.0000000000,0.0000000000
1717675247770,7.0000000000,0.0000000000,0.0000000000,98.0000000000,68.0000000000,1.0000000000
1717675247771,7.0000000000,0.0000000000,0.0000000000,97.0000000000,68.0000000000,1.0000000000
1717675247771,7.0000000000,0.0000000000,0.0000000000,97.0000000000,68.0000000000,0.0000000000
1717675247771,7.0000000000,0.0000000000,0.0000000000,97.0000000000,67.0000000000,0.0000000000
1717675247771,7.0000000000,0.0000000000,0.0000000000,96.0000000000,67.0000000000,1.0000000000
1717675247772,6.0000000000,0.0000000000,0.0000000000,96.0000000000,67.0000000000,0.0000000000
1717675247772,6.0000000000,0.0000000000,0.0000000000,96.0000000000,66.0000000000,0.0000000000
1717675247772,6.0000000000,0.0000000000,0.0000000000,95.0000000000,66.0000000000,0.0000000000
1717675247772,7.0000000000,0.0000000000,0.0000000000,95.0000000000,66.0000000000,1.0000000000
1717675247772,6.0000000000,0.0000000000,0.0000000000,95.0000000000,66.0000000000,0.0000000000
1717675247773,6.0000000000,0.0000000000,0.0000000000,94.0000000000,65.0000000000,0.0000000000
1717675247773,6.0000000000,0.0000000000,0.0000000000,94.0000000000,65.0000000000,0.0000000000
1717675247773,6.0000000000,0.0000000000,0.0000000000,94.0000000000,64.0000000000,1.0000000000
1717675247773,7.0000000000,0.0000000000,0.0000000000,93.0000000000,65.0000000000,3.0000000000
1717675247774,7.0000000000,0.0000000000,0.0000000000,92.0000000000,64.0000000000,4.0000000000
1717675247775,7.0000000000,0.0000000000,0.0000000000,92.0000000000,63.0000000000,3.0000000000
1717675247775,7.0000000000,0.0000000000,0.0000000000,92.0000000000,63.0000000000,3.0000000000
1717675247776,7.0000000000,0.0000000000,0.0000000000,91.0000000000,63.0000000000,3.0000000000
1717675247776,7.0000000000,0.0000000000,0.0000000000,92.0000000000,63.0000000000,3.0000000000
1717675247776,7.0000000000,0.0000000000,0.0000000000,91.0000000000,63.0000000000,4.0000000000
1717675247776,7.0000000000,0.0000000000,0.0000000000,91.0000000000,62.0000000000,4.0000000000
1717675247777,7.0000000000,0.0000000000,0.0000000000,91.0000000000,62.0000000000,3.0000000000
1717675247777,7.0000000000,0.0000000000,0.0000000000,89.0000000000,62.0000000000,3.0000000000
1717675247777,7.0000000000,0.0000000000,0.0000000000,89.0000000000,62.0000000000,4.0000000000
1717675247777,7.0000000000,0.0000000000,0.0000000000,89.0000000000,62.0000000000,4.0000000000
1717675247777,7.0000000000,0.0000000000,0.0000000000,88.0000000000,61.0000000000,3.0000000000
1717675247778,7.0000000000,0.0000000000,0.0000000000,88.0000000000,61.0000000000,4.0000000000
1717675247778,6.0000000000,0.0000000000,0.0000000000,88.0000000000,61.0000000000,4.0000000000
1717675247778,7.0000000000,0.0000000000,0.0000000000,88.0000000000,60.0000000000,3.0000000000
1717675247778,7.0000000000,0.0000000000,0.0000000000,88.0000000000,60.0000000000,4.0000000000
1717675247779,7.0000000000,0.0000000000,0.0000000000,88.0000000000,60.0000000000,3.0000000000
1717675247780,7.0000000000,0.0000000000,0.0000000000,87.0000000000,60.0000000000,4.0000000000
1717675247780,7.0000000000,0.0000000000,0.0000000000,86.0000000000,60.0000000000,4.0000000000
1717675247780,7.0000000000,0.0000000000,0.0000000000,86.0000000000,59.0000000000,3.0000000000
1717675247781,7.0000000000,0.0000000000,0.0000000000,86.0000000000,59.0000000000,3.0000000000
1717675247781,7.0000000000,0.0000000000,0.0000000000,85.0000000000,59.0000000000,3.0000000000
1717675247781,7.0000000000,0.0000000000,0.0000000000,84.0000000000,59.0000000000,4.0000000000
1717675247781,7.0000000000,0.0000000000,0.0000000000,85.0000000000,58.0000000000,3.0000000000
1717675247782,7.0000000000,0.0000000000,0.0000000000,84.0000000000,57.0000000000,3.0000000000
1717675247782,7.0000000000,0.0000000000,0.0000000000,84.0000000000,57.0000000000,3.0000000000
1717675247782,7.0000000000,0.0000000000,0.0000000000,83.0000000000,57.0000000000,3.0000000000
1717675247783,6.0000000000,0.0000000000,0.0000000000,83.0000000000,57.0000000000,3.0000000000
1717675247783,7.0000000000,0.0000000000,0.0000000000,83.0000000000,56.0000000000,3.0000000000
1717675247784,6.0000000000,0.0000000000,0.0000000000,83.0000000000,56.0000000000,3.0000000000
1717675247784,6.0000000000,0.0000000000,0.0000000000,82.0000000000,56.0000000000,3.0000000000
1717675247784,7.0000000000,0.0000000000,0.0000000000,82.0000000000,56.0000000000,3.0000000000
1717675247784,7.0000000000,0.0000000000,0.0000000000,81.0000000000,56.0000000000,3.0000000000
1717675247784,7.0000000000,0.0000000000,0.0000000000,81.0000000000,56.0000000000,3.0000000000
1717675247785,7.0000000000,0.0000000000,0.0000000000,81.0000000000,56.0000000000,3.0000000000
1717675247785,7.0000000000,0.0000000000,0.0000000000,80.0000000000,56.0000000000,3.0000000000
1717675247785,6.0000000000,0.0000000000,0.0000000000,81.0000000000,55.0000000000,3.0000000000
1717675247785,7.0000000000,0.0000000000,0.0000000000,79.0000000000,55.0000000000,3.0000000000
1717675247785,7.0000000000,0.0000000000,0.0000000000,80.0000000000,55.0000000000,3.0000000000
1717675247786,6.0000000000,0.0000000000,0.0000000000,79.0000000000,54.0000000000,3.0000000000
1717675247786,7.0000000000,0.0000000000,0.0000000000,79.0000000000,54.0000000000,3.0000000000
1717675247786,6.0000000000,0.0000000000,1.0000000000,79.0000000000,54.0000000000,3.0000000000
1717675247800,6.0000000000,0.0000000000,0.0000000000,79.0000000000,54.0000000000,3.0000000000
1717675247800,6.0000000000,0.0000000000,0.0000000000,78.0000000000,54.0000000000,3.0000000000
1717675247801,6.0000000000,0.0000000000,0.0000000000,79.0000000000,54.0000000000,3.0000000000
1717675247801,6.0000000000,0.0000000000,0.0000000000,78.0000000000,54.0000000000,3.0000000000
1717675247801,7.0000000000,0.0000000000,0.0000000000,78.0000000000,52.0000000000,3.0000000000
1717675247801,7.0000000000,0.0000000000,0.0000000000,78.0000000000,52.0000000000,3.0000000000
1717675247801,7.0000000000,0.0000000000,0.0000000000,77.0000000000,52.0000000000,3.0000000000
1717675247801,6.0000000000,0.0000000000,0.0000000000,76.0000000000,52.0000000000,3.0000000000
1717675247801,7.0000000000,0.0000000000,0.0000000000,77.0000000000,51.0000000000,3.0000000000
1717675247802,6.0000000000,0.0000000000,0.0000000000,76.0000000000,51.0000000000,3.0000000000
1717675247802,7.0000000000,0.0000000000,0.0000000000,76.0000000000,51.0000000000,3.0000000000
1717675247802,7.0000000000,0.0000000000,0.0000000000,76.0000000000,51.0000000000,3.0000000000
1717675247802,7.0000000000,0.0000000000,0.0000000000,75.0000000000,51.0000000000,3.0000000000
1717675247817,6.0000000000,0.0000000000,0.0000000000,75.0000000000,51.0000000000,3.0000000000
1717675247818,6.0000000000,0.0000000000,0.0000000000,75.0000000000,51.0000000000,3.0000000000
1717675247818,6.0000000000,0.0000000000,1.0000000000,75.0000000000,49.0000000000,2.0000000000
1717675247818,6.0000000000,0.0000000000,1.0000000000,74.0000000000,50.0000000000,2.0000000000
1717675247818,6.0000000000,0.0000000000,1.0000000000,74.0000000000,50.0000000000,3.0000000000
1717675247818,6.0000000000,0.0000000000,0.0000000000,73.0000000000,50.0000000000,3.0000000000
1717675247819,6.0000000000,0.0000000000,0.0000000000,73.0000000000,49.0000000000,3.0000000000
1717675247819,6.0000000000,0.0000000000,1.0000000000,73.0000000000,49.0000000000,3.0000000000
1717675247819,6.0000000000,0.0000000000,0.0000000000,72.0000000000,49.0000000000,3.0000000000
1717675247819,6.0000000000,0.0000000000,0.0000000000,71.0000000000,49.0000000000,3.0000000000
1717675247819,7.0000000000,0.0000000000,1.0000000000,71.0000000000,49.0000000000,2.0000000000
1717675247819,7.0000000000,0.0000000000,0.0000000000,71.0000000000,49.0000000000,3.0000000000
1717675247819,7.0000000000,0.0000000000,0.0000000000,71.0000000000,48.0000000000,2.0000000000
1717675247833,7.0000000000,0.0000000000,0.0000000000,71.0000000000,48.0000000000,3.0000000000
1717675247834,6.0000000000,0.0000000000,0.0000000000,71.0000000000,48.0000000000,3.0000000000
1717675247834,6.0000000000,0.0000000000,0.0000000000,71.0000000000,48.0000000000,3.0000000000
1717675247834,6.0000000000,0.0000000000,1.0000000000,71.0000000000,48.0000000000,3.0000000000
1717675247834,6.0000000000,0.0000000000,0.0000000000,71.0000000000,47.0000000000,3.0000000000
1717675247834,6.0000000000,0.0000000000,0.0000000000,70.0000000000,47.0000000000,3.0000000000
1717675247834,6.0000000000,0.0000000000,0.0000000000,70.0000000000,47.0000000000,2.0000000000
1717675247834,6.0000000000,0.0000000000,0.0000000000,70.0000000000,47.0000000000,3.0000000000
1717675247834,6.0000000000,0.0000000000,0.0000000000,69.0000000000,47.0000000000,3.0000000000
1717675247834,6.0000000000,0.0000000000,0.0000000000,69.0000000000,47.0000000000,3.0000000000
1717675247834,6.0000000000,0.0000000000,0.0000000000,68.0000000000,46.0000000000,3.0000000000
1717675247835,7.0000000000,0.0000000000,0.0000000000,68.0000000000,46.0000000000,3.0000000000
1717675247849,6.0000000000,0.0000000000,0.0000000000,68.0000000000,46.0000000000,2.0000000000
1717675247851,6.0000000000,0.0000000000,0.0000000000,68.0000000000,46.0000000000,2.0000000000
1717675247851,6.0000000000,0.0000000000,0.0000000000,67.0000000000,46.0000000000,2.0000000000
1717675247851,6.0000000000,0.0000000000,0.0000000000,67.0000000000,45.0000000000,2.0000000000
1717675247851,6.0000000000,0.0000000000,0.0000000000,67.0000000000,45.0000000000,2.0000000000
1717675247852,6.0000000000,0.0000000000,0.0000000000,67.0000000000,44.0000000000,2.0000000000
1717675247852,6.0000000000,0.0000000000,0.0000000000,67.0000000000,45.0000000000,2.0000000000
1717675247852,6.0000000000,0.0000000000,0.0000000000,67.0000000000,44.0000000000,2.0000000000
1717675247853,5.0000000000,0.0000000000,0.0000000000,66.0000000000,44.0000000000,2.0000000000
1717675247853,6.0000000000,0.0000000000,0.0000000000,66.0000000000,44.0000000000,2.0000000000
1717675247854,6.0000000000,0.0000000000,0.0000000000,65.0000000000,44.0000000000,2.0000000000
1717675247854,6.0000000000,0.0000000000,0.0000000000,65.0000000000,44.0000000000,1.0000000000
1717675247854,6.0000000000,0.0000000000,0.0000000000,65.0000000000,44.0000000000,2.0000000000
1717675247855,6.0000000000,0.0000000000,0.0000000000,65.0000000000,43.0000000000,1.0000000000
1717675247855,7.0000000000,0.0000000000,0.0000000000,65.0000000000,43.0000000000,1.0000000000
1717675247855,6.0000000000,0.0000000000,0.0000000000,65.0000000000,43.0000000000,2.0000000000
1717675247883,6.0000000000,0.0000000000,0.0000000000,63.0000000000,53.0000000000,1.0000000000
1717675247884,6.0000000000,0.0000000000,0.0000000000,63.0000000000,59.0000000000,1.0000000000
1717675247884,6.0000000000,0.0000000000,0.0000000000,63.0000000000,59.0000000000,2.0000000000
1717675247884,6.0000000000,0.0000000000,0.0000000000,63.0000000000,57.0000000000,1.0000000000
1717675247884,6.0000000000,0.0000000000,0.0000000000,63.0000000000,57.0000000000,1.0000000000
1717675247884,6.0000000000,0.0000000000,0.0000000000,63.0000000000,57.0000000000,2.0000000000
1717675247884,6.0000000000,0.0000000000,0.0000000000,63.0000000000,57.0000000000,1.0000000000
1717675247884,6.0000000000,0.0000000000,0.0000000000,63.0000000000,57.0000000000,1.0000000000
1717675247884,6.0000000000,0.0000000000,0.0000000000,62.0000000000,56.0000000000,1.0000000000
1717675247884,6.0000000000,0.0000000000,0.0000000000,62.0000000000,56.0000000000,2.0000000000
1717675247884,6.0000000000,0.0000000000,0.0000000000,62.0000000000,56.0000000000,1.0000000000
1717675247885,5.0000000000,0.0000000000,0.0000000000,62.0000000000,56.0000000000,1.0000000000
1717675247885,6.0000000000,0.0000000000,0.0000000000,62.0000000000,56.0000000000,1.0000000000
1717675247885,7.0000000000,0.0000000000,0.0000000000,61.0000000000,55.0000000000,2.0000000000
1717675247885,7.0000000000,0.0000000000,0.0000000000,61.0000000000,55.0000000000,2.0000000000
1717675247885,7.0000000000,0.0000000000,0.0000000000,61.0000000000,55.0000000000,3.0000000000
1717675247885,7.0000000000,0.0000000000,0.0000000000,60.0000000000,55.0000000000,3.0000000000
1717675247885,7.0000000000,0.0000000000,0.0000000000,60.0000000000,54.0000000000,3.0000000000
1717675247885,7.0000000000,0.0000000000,0.0000000000,60.0000000000,54.0000000000,3.0000000000
1717675247886,7.0000000000,0.0000000000,0.0000000000,60.0000000000,54.0000000000,3.0000000000
1717675247886,7.0000000000,0.0000000000,0.0000000000,60.0000000000,54.0000000000,3.0000000000
1717675247886,7.0000000000,0.0000000000,0.0000000000,60.0000000000,53.0000000000,3.0000000000
1717675247886,7.0000000000,0.0000000000,0.0000000000,59.0000000000,52.0000000000,3.0000000000
1717675247901,6.0000000000,0.0000000000,0.0000000000,60.0000000000,52.0000000000,3.0000000000
1717675247902,7.0000000000,0.0000000000,0.0000000000,59.0000000000,52.0000000000,3.0000000000
1717675247902,7.0000000000,0.0000000000,0.0000000000,59.0000000000,52.0000000000,3.0000000000
1717675247902,7.0000000000,0.0000000000,0.0000000000,59.0000000000,51.0000000000,3.0000000000
1717675247902,7.0000000000,0.0000000000,0.0000000000,57.0000000000,52.0000000000,3.0000000000
1717675247902,7.0000000000,0.0000000000,0.0000000000,57.0000000000,51.0000000000,3.0000000000
1717675247902,7.0000000000,0.0000000000,0.0000000000,57.0000000000,51.0000000000,3.0000000000
1717675247902,7.0000000000,0.0000000000,0.0000000000,57.0000000000,51.0000000000,3.0000000000
1717675247902,7.0000000000,0.0000000000,0.0000000000,57.0000000000,51.0000000000,3.0000000000
1717675247903,7.0000000000,0.0000000000,0.0000000000,57.0000000000,50.0000000000,3.0000000000
1717675247903,7.0000000000,0.0000000000,0.0000000000,56.0000000000,51.0000000000,3.0000000000
1717675247903,7.0000000000,0.0000000000,0.0000000000,56.0000000000,51.0000000000,3.0000000000
1717675247903,7.0000000000,0.0000000000,0.0000000000,56.0000000000,50.0000000000,2.0000000000
1717675247903,6.0000000000,0.0000000000,0.0000000000,56.0000000000,49.0000000000,3.0000000000
1717675247903,7.0000000000,0.0000000000,0.0000000000,56.0000000000,49.0000000000,3.0000000000
1717675247903,6.0000000000,0.0000000000,0.0000000000,56.0000000000,49.0000000000,2.0000000000
1717675247917,7.0000000000,0.0000000000,0.0000000000,56.0000000000,49.0000000000,3.0000000000
1717675247918,7.0000000000,0.0000000000,0.0000000000,56.0000000000,49.0000000000,2.0000000000
1717675247918,7.0000000000,0.0000000000,0.0000000000,56.0000000000,49.0000000000,3.0000000000
1717675247918,7.0000000000,0.0000000000,0.0000000000,55.0000000000,48.0000000000,2.0000000000
1717675247918,7.0000000000,0.0000000000,0.0000000000,55.0000000000,48.0000000000,3.0000000000
1717675247918,7.0000000000,0.0000000000,0.0000000000,54.0000000000,48.0000000000,3.0000000000
1717675247918,7.0000000000,0.0000000000,0.0000000000,54.0000000000,48.0000000000,3.0000000000
1717675247919,7.0000000000,0.0000000000,0.0000000000,55.0000000000,47.0000000000,2.0000000000
1717675247919,7.0000000000,0.0000000000,0.0000000000,54.0000000000,47.0000000000,2.0000000000
1717675247919,7.0000000000,0.0000000000,0.0000000000,54.0000000000,47.0000000000,3.0000000000
1717675247947,7.0000000000,0.0000000000,0.0000000000,54.0000000000,47.0000000000,2.0000000000
1717675247949,7.0000000000,0.0000000000,0.0000000000,53.0000000000,47.0000000000,3.0000000000
1717675247949,7.0000000000,0.0000000000,0.0000000000,54.0000000000,46.0000000000,2.0000000000
1717675247949,7.0000000000,0.0000000000,0.0000000000,53.0000000000,46.0000000000,2.0000000000
1717675247950,7.0000000000,0.0000000000,0.0000000000,52.0000000000,46.0000000000,3.0000000000
1717675247951,7.0000000000,0.0000000000,0.0000000000,52.0000000000,46.0000000000,2.0000000000
1717675247951,7.0000000000,0.0000000000,0.0000000000,52.0000000000,46.0000000000,2.0000000000
1717675247951,7.0000000000,0.0000000000,0.0000000000,52.0000000000,46.0000000000,2.0000000000
1717675247951,7.0000000000,0.0000000000,0.0000000000,52.0000000000,45.0000000000,2.0000000000
1717675247951,7.0000000000,0.0000000000,0.0000000000,52.0000000000,45.0000000000,2.0000000000
1717675247951,7.0000000000,0.0000000000,0.0000000000,51.0000000000,45.0000000000,3.0000000000
1717675247951,7.0000000000,0.0000000000,0.0000000000,51.0000000000,45.0000000000,3.0000000000
1717675247952,7.0000000000,0.0000000000,0.0000000000,51.0000000000,45.0000000000,3.0000000000
1717675247952,7.0000000000,0.0000000000,0.0000000000,51.0000000000,44.0000000000,3.0000000000
1717675247952,7.0000000000,0.0000000000,0.0000000000,51.0000000000,44.0000000000,3.0000000000
1717675247952,7.0000000000,0.0000000000,0.0000000000,51.0000000000,44.0000000000,3.0000000000
1717675247952,7.0000000000,0.0000000000,0.0000000000,51.0000000000,44.0000000000,3.0000000000
1717675247952,7.0000000000,0.0000000000,0.0000000000,50.0000000000,44.0000000000,3.0000000000
1717675247952,7.0000000000,0.0000000000,0.0000000000,50.0000000000,44.0000000000,3.0000000000
1717675247953,7.0000000000,0.0000000000,0.0000000000,50.0000000000,44.0000000000,3.0000000000
1717675247953,7.0000000000,0.0000000000,0.0000000000,50.0000000000,43.0000000000,3.0000000000
1717675247953,7.0000000000,0.0000000000,0.0000000000,49.0000000000,43.0000000000,3.0000000000
1717675247953,7.0000000000,0.0000000000,0.0000000000,49.0000000000,43.0000000000,3.0000000000
1717675247953,7.0000000000,0.0000000000,0.0000000000,49.0000000000,43.0000000000,3.0000000000
1717675247953,7.0000000000,0.0000000000,0.0000000000,49.0000000000,43.0000000000,3.0000000000
1717675247953,7.0000000000,0.0000000000,0.0000000000,48.0000000000,43.0000000000,3.0000000000
1717675247954,7.0000000000,0.0000000000,0.0000000000,49.0000000000,42.0000000000,3.0000000000
1717675247954,7.0000000000,0.0000000000,0.0000000000,49.0000000000,42.0000000000,3.0000000000
1717675247954,7.0000000000,0.0000000000,0.0000000000,48.0000000000,42.0000000000,3.0000000000
1717675247976,7.0000000000,0.0000000000,0.0000000000,48.0000000000,41.0000000000,3.0000000000
1717675247978,7.0000000000,0.0000000000,0.0000000000,48.0000000000,41.0000000000,3.0000000000
1717675247979,7.0000000000,0.0000000000,0.0000000000,48.0000000000,41.0000000000,4.0000000000
1717675247979,7.0000000000,0.0000000000,0.0000000000,48.0000000000,41.0000000000,5.0000000000
1717675247979,7.0000000000,0.0000000000,0.0000000000,48.0000000000,41.0000000000,4.0000000000
1717675247980,7.0000000000,0.0000000000,0.0000000000,48.0000000000,39.0000000000,4.0000000000
1717675247980,7.0000000000,0.0000000000,0.0000000000,47.0000000000,40.0000000000,4.0000000000
1717675247980,7.0000000000,0.0000000000,1.0000000000,47.0000000000,39.0000000000,4.0000000000
1717675247981,7.0000000000,0.0000000000,1.0000000000,47.0000000000,39.0000000000,4.0000000000
1717675247981,7.0000000000,0.0000000000,1.0000000000,47.0000000000,39.0000000000,4.0000000000
1717675247981,7.0000000000,0.0000000000,1.0000000000,47.0000000000,39.0000000000,3.0000000000
1717675247982,7.0000000000,0.0000000000,1.0000000000,47.0000000000,39.0000000000,4.0000000000
1717675247982,7.0000000000,0.0000000000,1.0000000000,46.0000000000,39.0000000000,4.0000000000
1717675247982,7.0000000000,0.0000000000,1.0000000000,46.0000000000,39.0000000000,4.0000000000
1717675247983,7.0000000000,0.0000000000,0.0000000000,46.0000000000,39.0000000000,3.0000000000
1717675247983,7.0000000000,0.0000000000,1.0000000000,46.0000000000,39.0000000000,4.0000000000
1717675247983,7.0000000000,0.0000000000,1.0000000000,46.0000000000,39.0000000000,4.0000000000
1717675247984,7.0000000000,0.0000000000,1.0000000000,46.0000000000,39.0000000000,4.0000000000
1717675247984,6.0000000000,0.0000000000,1.0000000000,45.0000000000,39.0000000000,3.0000000000
1717675247984,6.0000000000,0.0000000000,1.0000000000,45.0000000000,39.0000000000,4.0000000000
1717675247984,7.0000000000,0.0000000000,1.0000000000,45.0000000000,38.0000000000,4.0000000000
1717675247984,6.0000000000,0.0000000000,1.0000000000,45.0000000000,38.0000000000,4.0000000000
1717675247998,7.0000000000,0.0000000000,1.0000000000,45.0000000000,38.0000000000,3.0000000000
1717675248001,6.0000000000,0.0000000000,1.0000000000,44.0000000000,38.0000000000,4.0000000000
1717675248001,7.0000000000,0.0000000000,1.0000000000,44.0000000000,38.0000000000,4.0000000000
1717675248001,7.0000000000,0.0000000000,1.0000000000,44.0000000000,38.0000000000,4.0000000000
1717675248002,6.0000000000,0.0000000000,1.0000000000,44.0000000000,37.0000000000,4.0000000000
1717675248002,7.0000000000,0.0000000000,1.0000000000,44.0000000000,38.0000000000,3.0000000000
1717675248002,6.0000000000,0.0000000000,1.0000000000,44.0000000000,38.0000000000,3.0000000000
1717675248002,7.0000000000,0.0000000000,1.0000000000,44.0000000000,37.0000000000,3.0000000000
1717675248002,7.0000000000,0.0000000000,1.0000000000,44.0000000000,36.0000000000,3.0000000000
1717675248003,6.0000000000,0.0000000000,1.0000000000,43.0000000000,36.0000000000,3.0000000000
1717675248003,6.0000000000,0.0000000000,1.0000000000,43.0000000000,36.0000000000,3.0000000000
1717675248003,6.0000000000,0.0000000000,1.0000000000,43.0000000000,35.0000000000,3.0000000000
1717675248004,6.0000000000,0.0000000000,1.0000000000,43.0000000000,35.0000000000,3.0000000000
1717675248004,6.0000000000,0.0000000000,1.0000000000,43.0000000000,35.0000000000,3.0000000000
1717675248005,6.0000000000,0.0000000000,0.0000000000,42.0000000000,35.0000000000,3.0000000000
1717675248005,6.0000000000,0.0000000000,1.0000000000,43.0000000000,99.0000000000,3.0000000000
1717675248005,6.0000000000,0.0000000000,1.0000000000,42.0000000000,124.0000000000,3.0000000000
1717675248006,6.0000000000,0.0000000000,1.0000000000,42.0000000000,122.0000000000,3.0000000000
1717675248006,6.0000000000,0.0000000000,1.0000000000,42.0000000000,121.0000000000,3.0000000000
1717675248019,6.0000000000,0.0000000000,1.0000000000,41.0000000000,120.0000000000,3.0000000000
1717675248020,6.0000000000,0.0000000000,1.0000000000,41.0000000000,120.0000000000,3.0000000000
1717675248020,6.0000000000,0.0000000000,1.0000000000,41.0000000000,120.0000000000,3.0000000000
1717675248020,6.0000000000,0.0000000000,1.0000000000,41.0000000000,119.0000000000,3.0000000000
1717675248020,6.0000000000,0.0000000000,1.0000000000,40.0000000000,118.0000000000,4.0000000000
1717675248020,6.0000000000,0.0000000000,1.0000000000,41.0000000000,118.0000000000,3.0000000000
1717675248021,6.0000000000,0.0000000000,1.0000000000,41.0000000000,116.0000000000,4.0000000000
1717675248021,6.0000000000,0.0000000000,1.0000000000,39.0000000000,116.0000000000,4.0000000000
1717675248021,6.0000000000,0.0000000000,1.0000000000,39.0000000000,115.0000000000,4.0000000000
1717675248022,6.0000000000,0.0000000000,1.0000000000,39.0000000000,115.0000000000,4.0000000000
1717675248022,6.0000000000,0.0000000000,1.0000000000,39.0000000000,115.0000000000,4.0000000000
1717675248023,6.0000000000,0.0000000000,1.0000000000,39.0000000000,115.0000000000,4.0000000000
1717675248046,6.0000000000,0.0000000000,1.0000000000,39.0000000000,115.0000000000,7.0000000000
1717675248048,6.0000000000,0.0000000000,2.0000000000,39.0000000000,113.0000000000,7.0000000000
1717675248048,6.0000000000,0.0000000000,1.0000000000,39.0000000000,113.0000000000,8.0000000000
1717675248049,6.0000000000,0.0000000000,1.0000000000,39.0000000000,135.0000000000,9.0000000000
1717675248050,6.0000000000,0.0000000000,1.0000000000,39.0000000000,135.0000000000,9.0000000000
1717675248050,5.0000000000,0.0000000000,1.0000000000,39.0000000000,134.0000000000,8.0000000000
1717675248050,6.0000000000,0.0000000000,1.0000000000,39.0000000000,133.0000000000,8.0000000000
1717675248050,11.0000000000,0.0000000000,2.0000000000,39.0000000000,132.0000000000,8.0000000000
1717675248051,12.0000000000,0.0000000000,1.0000000000,38.0000000000,131.0000000000,7.0000000000
1717675248051,12.0000000000,0.0000000000,2.0000000000,39.0000000000,131.0000000000,8.0000000000
1717675248051,11.0000000000,0.0000000000,1.0000000000,38.0000000000,130.0000000000,7.0000000000
1717675248051,11.0000000000,0.0000000000,1.0000000000,38.0000000000,129.0000000000,7.0000000000
1717675248051,11.0000000000,0.0000000000,1.0000000000,38.0000000000,129.0000000000,7.0000000000
1717675248051,11.0000000000,0.0000000000,3.0000000000,38.0000000000,127.0000000000,7.0000000000
1717675248051,11.0000000000,0.0000000000,4.0000000000,38.0000000000,131.0000000000,7.0000000000
1717675248052,11.0000000000,0.0000000000,3.0000000000,38.0000000000,166.0000000000,7.0000000000
1717675248052,11.0000000000,0.0000000000,4.0000000000,38.0000000000,164.0000000000,7.0000000000
1717675248052,11.0000000000,0.0000000000,4.0000000000,37.0000000000,163.0000000000,7.0000000000
1717675248052,11.0000000000,0.0000000000,4.0000000000,37.0000000000,161.0000000000,7.0000000000
1717675248052,11.0000000000,0.0000000000,3.0000000000,36.0000000000,161.0000000000,7.0000000000
1717675248066,11.0000000000,0.0000000000,4.0000000000,36.0000000000,159.0000000000,7.0000000000
1717675248066,14.0000000000,0.0000000000,3.0000000000,36.0000000000,159.0000000000,7.0000000000
1717675248066,14.0000000000,0.0000000000,3.0000000000,36.0000000000,158.0000000000,7.0000000000
1717675248067,13.0000000000,0.0000000000,3.0000000000,36.0000000000,158.0000000000,8.0000000000
1717675248067,13.0000000000,0.0000000000,3.0000000000,35.0000000000,190.0000000000,7.0000000000
1717675248067,14.0000000000,0.0000000000,3.0000000000,36.0000000000,189.0000000000,7.0000000000
1717675248067,13.0000000000,0.0000000000,3.0000000000,35.0000000000,188.0000000000,7.0000000000
1717675248067,13.0000000000,0.0000000000,3.0000000000,35.0000000000,187.0000000000,7.0000000000
1717675248067,13.0000000000,0.0000000000,3.0000000000,35.0000000000,185.0000000000,7.0000000000
1717675248068,12.0000000000,0.0000000000,3.0000000000,35.0000000000,184.0000000000,7.0000000000
1717675248068,13.0000000000,0.0000000000,3.0000000000,35.0000000000,184.0000000000,7.0000000000
1717675248068,13.0000000000,0.0000000000,8.0000000000,35.0000000000,183.0000000000,46.0000000000
1717675248082,13.0000000000,0.0000000000,9.0000000000,35.0000000000,182.0000000000,46.0000000000
1717675248084,13.0000000000,0.0000000000,9.0000000000,35.0000000000,180.0000000000,46.0000000000
1717675248084,13.0000000000,0.0000000000,9.0000000000,35.0000000000,179.0000000000,45.0000000000
1717675248085,12.0000000000,0.0000000000,9.0000000000,35.0000000000,179.0000000000,45.0000000000
1717675248085,12.0000000000,0.0000000000,9.0000000000,34.0000000000,177.0000000000,44.0000000000
1717675248085,12.0000000000,1.0000000000,14.0000000000,34.0000000000,176.0000000000,44.0000000000
1717675248085,12.0000000000,1.0000000000,13.0000000000,34.0000000000,176.0000000000,44.0000000000
1717675248086,12.0000000000,1.0000000000,13.0000000000,34.0000000000,175.0000000000,44.0000000000
1717675248086,12.0000000000,1.0000000000,13.0000000000,33.0000000000,174.0000000000,43.0000000000
1717675248086,12.0000000000,1.0000000000,13.0000000000,34.0000000000,172.0000000000,43.0000000000
1717675248099,12.0000000000,1.0000000000,13.0000000000,33.0000000000,172.0000000000,43.0000000000
1717675248101,12.0000000000,1.0000000000,13.0000000000,33.0000000000,171.0000000000,43.0000000000
1717675248101,12.0000000000,1.0000000000,12.0000000000,33.0000000000,169.0000000000,43.0000000000
1717675248101,108.0000000000,1.0000000000,13.0000000000,33.0000000000,169.0000000000,41.0000000000
1717675248101,123.0000000000,1.0000000000,12.0000000000,32.0000000000,167.0000000000,41.0000000000
1717675248101,122.0000000000,1.0000000000,12.0000000000,33.0000000000,167.0000000000,41.0000000000
1717675248101,121.0000000000,1.0000000000,12.0000000000,32.0000000000,166.0000000000,40.0000000000
1717675248101,120.0000000000,1.0000000000,12.0000000000,32.0000000000,165.0000000000,41.0000000000
1717675248102,119.0000000000,1.0000000000,12.0000000000,32.0000000000,164.0000000000,40.0000000000
1717675248102,119.0000000000,1.0000000000,12.0000000000,32.0000000000,163.0000000000,39.0000000000
1717675248128,118.0000000000,1.0000000000,13.0000000000,31.0000000000,162.0000000000,39.0000000000
1717675248129,116.0000000000,1.0000000000,13.0000000000,32.0000000000,161.0000000000,39.0000000000
1717675248129,116.0000000000,1.0000000000,13.0000000000,31.0000000000,161.0000000000,39.0000000000
1717675248129,115.0000000000,1.0000000000,13.0000000000,31.0000000000,159.0000000000,39.0000000000
1717675248129,114.0000000000,1.0000000000,13.0000000000,31.0000000000,158.0000000000,39.0000000000
1717675248129,113.0000000000,1.0000000000,13.0000000000,31.0000000000,158.0000000000,39.0000000000
1717675248129,113.0000000000,1.0000000000,13.0000000000,31.0000000000,156.0000000000,38.0000000000
1717675248129,112.0000000000,1.0000000000,12.0000000000,31.0000000000,156.0000000000,41.0000000000
1717675248129,112.0000000000,1.0000000000,12.0000000000,31.0000000000,156.0000000000,41.0000000000
1717675248129,111.0000000000,1.0000000000,13.0000000000,63.0000000000,155.0000000000,41.0000000000
1717675248129,110.0000000000,1.0000000000,12.0000000000,63.0000000000,224.0000000000,46.0000000000
1717675248129,110.0000000000,1.0000000000,18.0000000000,62.0000000000,248.0000000000,46.0000000000
1717675248130,109.0000000000,1.0000000000,18.0000000000,62.0000000000,247.0000000000,46.0000000000
1717675248130,108.0000000000,1.0000000000,18.0000000000,61.0000000000,244.0000000000,45.0000000000
1717675248130,108.0000000000,1.0000000000,18.0000000000,60.0000000000,243.0000000000,45.0000000000
1717675248130,107.0000000000,1.0000000000,18.0000000000,60.0000000000,241.0000000000,45.0000000000
1717675248130,107.0000000000,1.0000000000,18.0000000000,60.0000000000,240.0000000000,44.0000000000
1717675248147,105.0000000000,1.0000000000,18.0000000000,60.0000000000,239.0000000000,44.0000000000
1717675248147,105.0000000000,1.0000000000,18.0000000000,60.0000000000,236.0000000000,44.0000000000
1717675248147,104.0000000000,1.0000000000,17.0000000000,59.0000000000,235.0000000000,43.0000000000
1717675248147,103.0000000000,1.0000000000,17.0000000000,59.0000000000,233.0000000000,43.0000000000
1717675248148,103.0000000000,1.0000000000,17.0000000000,58.0000000000,231.0000000000,43.0000000000
1717675248148,103.0000000000,1.0000000000,17.0000000000,57.0000000000,231.0000000000,43.0000000000
1717675248148,103.0000000000,103.0000000000,27.0000000000,57.0000000000,230.0000000000,43.0000000000
1717675248148,102.0000000000,110.0000000000,39.0000000000,56.0000000000,227.0000000000,42.0000000000
1717675248148,100.0000000000,109.0000000000,39.0000000000,57.0000000000,269.0000000000,41.0000000000
1717675248164,100.0000000000,108.0000000000,39.0000000000,56.0000000000,278.0000000000,41.0000000000
1717675248165,99.0000000000,107.0000000000,38.0000000000,56.0000000000,275.0000000000,41.0000000000
1717675248166,99.0000000000,107.0000000000,38.0000000000,56.0000000000,273.0000000000,41.0000000000
1717675248166,98.0000000000,105.0000000000,38.0000000000,56.0000000000,271.0000000000,39.0000000000
1717675248166,98.0000000000,104.0000000000,37.0000000000,55.0000000000,269.0000000000,39.0000000000
1717675248167,97.0000000000,103.0000000000,37.0000000000,55.0000000000,268.0000000000,39.0000000000
1717675248167,96.0000000000,103.0000000000,86.0000000000,54.0000000000,265.0000000000,39.0000000000
1717675248168,96.0000000000,103.0000000000,98.0000000000,54.0000000000,263.0000000000,39.0000000000
1717675248168,95.0000000000,103.0000000000,97.0000000000,53.0000000000,263.0000000000,39.0000000000
1717675248168,95.0000000000,102.0000000000,96.0000000000,54.0000000000,260.0000000000,39.0000000000
1717675248169,95.0000000000,101.0000000000,96.0000000000,53.0000000000,259.0000000000,39.0000000000
1717675248192,94.0000000000,100.0000000000,95.0000000000,52.0000000000,257.0000000000,38.0000000000
1717675248193,93.0000000000,99.0000000000,95.0000000000,52.0000000000,255.0000000000,38.0000000000
1717675248193,93.0000000000,99.0000000000,94.0000000000,52.0000000000,254.0000000000,38.0000000000
1717675248193,167.0000000000,99.0000000000,93.0000000000,51.0000000000,252.0000000000,38.0000000000
1717675248193,164.0000000000,98.0000000000,93.0000000000,51.0000000000,251.0000000000,38.0000000000
1717675248193,163.0000000000,97.0000000000,92.0000000000,52.0000000000,249.0000000000,38.0000000000
1717675248194,162.0000000000,96.0000000000,91.0000000000,51.0000000000,248.0000000000,36.0000000000
1717675248194,160.0000000000,96.0000000000,91.0000000000,51.0000000000,246.0000000000,37.0000000000
1717675248194,159.0000000000,95.0000000000,91.0000000000,51.0000000000,245.0000000000,36.0000000000
1717675248194,158.0000000000,95.0000000000,90.0000000000,51.0000000000,243.0000000000,36.0000000000
1717675248194,260.0000000000,99.0000000000,89.0000000000,51.0000000000,242.0000000000,35.0000000000
1717675248194,255.0000000000,97.0000000000,88.0000000000,50.0000000000,240.0000000000,35.0000000000
1717675248194,254.0000000000,97.0000000000,88.0000000000,50.0000000000,239.0000000000,35.0000000000
1717675248194,251.0000000000,96.0000000000,88.0000000000,50.0000000000,237.0000000000,35.0000000000
1717675248195,249.0000000000,96.0000000000,88.0000000000,49.0000000000,236.0000000000,35.0000000000
1717675248195,248.0000000000,95.0000000000,87.0000000000,49.0000000000,235.0000000000,35.0000000000
1717675248209,246.0000000000,95.0000000000,87.0000000000,92.0000000000,233.0000000000,35.0000000000
1717675248210,244.0000000000,94.0000000000,86.0000000000,92.0000000000,231.0000000000,35.0000000000
1717675248210,243.0000000000,93.0000000000,86.0000000000,92.0000000000,231.0000000000,35.0000000000
1717675248210,241.0000000000,93.0000000000,84.0000000000,91.0000000000,229.0000000000,35.0000000000
1717675248210,239.0000000000,92.0000000000,83.0000000000,90.0000000000,228.0000000000,34.0000000000
1717675248210,238.0000000000,92.0000000000,83.0000000000,89.0000000000,227.0000000000,33.0000000000
1717675248210,236.0000000000,91.0000000000,83.0000000000,89.0000000000,225.0000000000,34.0000000000
1717675248210,235.0000000000,91.0000000000,83.0000000000,88.0000000000,224.0000000000,34.0000000000
1717675248210,233.0000000000,89.0000000000,82.0000000000,88.0000000000,223.0000000000,34.0000000000
1717675248210,231.0000000000,89.0000000000,82.0000000000,88.0000000000,222.0000000000,41.0000000000
1717675248228,230.0000000000,89.0000000000,81.0000000000,87.0000000000,220.0000000000,41.0000000000
1717675248229,228.0000000000,88.0000000000,80.0000000000,86.0000000000,219.0000000000,41.0000000000
1717675248229,227.0000000000,88.0000000000,80.0000000000,85.0000000000,217.0000000000,40.0000000000
1717675248229,225.0000000000,88.0000000000,79.0000000000,85.0000000000,216.0000000000,40.0000000000
1717675248229,224.0000000000,87.0000000000,79.0000000000,84.0000000000,215.0000000000,39.0000000000
1717675248229,223.0000000000,86.0000000000,79.0000000000,84.0000000000,214.0000000000,39.0000000000
1717675248229,221.0000000000,86.0000000000,78.0000000000,83.0000000000,212.0000000000,39.0000000000
1717675248229,220.0000000000,86.0000000000,78.0000000000,83.0000000000,211.0000000000,39.0000000000
1717675248229,219.0000000000,85.0000000000,78.0000000000,82.0000000000,211.0000000000,57.0000000000
1717675248248,217.0000000000,84.0000000000,78.0000000000,82.0000000000,209.0000000000,57.0000000000
1717675248248,216.0000000000,83.0000000000,76.0000000000,82.0000000000,207.0000000000,56.0000000000
1717675248248,214.0000000000,83.0000000000,76.0000000000,81.0000000000,207.0000000000,56.0000000000
1717675248248,213.0000000000,83.0000000000,76.0000000000,80.0000000000,206.0000000000,56.0000000000
1717675248249,211.0000000000,82.0000000000,75.0000000000,80.0000000000,205.0000000000,56.0000000000
1717675248249,210.0000000000,82.0000000000,75.0000000000,79.0000000000,204.0000000000,56.0000000000
1717675248249,209.0000000000,81.0000000000,75.0000000000,79.0000000000,203.0000000000,55.0000000000
1717675248249,207.0000000000,81.0000000000,73.0000000000,79.0000000000,201.0000000000,54.0000000000
1717675248250,207.0000000000,79.0000000000,73.0000000000,78.0000000000,199.0000000000,54.0000000000
1717675248250,206.0000000000,79.0000000000,72.0000000000,78.0000000000,199.0000000000,54.0000000000
1717675248250,204.0000000000,79.0000000000,73.0000000000,77.0000000000,198.0000000000,52.0000000000
1717675248272,203.0000000000,79.0000000000,71.0000000000,79.0000000000,196.0000000000,52.0000000000
1717675248273,201.0000000000,79.0000000000,71.0000000000,79.0000000000,195.0000000000,52.0000000000
1717675248273,200.0000000000,78.0000000000,71.0000000000,78.0000000000,195.0000000000,51.0000000000
1717675248273,199.0000000000,78.0000000000,71.0000000000,77.0000000000,193.0000000000,51.0000000000
1717675248273,199.0000000000,91.0000000000,71.0000000000,77.0000000000,192.0000000000,51.0000000000
1717675248273,198.0000000000,89.0000000000,70.0000000000,76.0000000000,192.0000000000,51.0000000000
1717675248273,196.0000000000,88.0000000000,70.0000000000,76.0000000000,191.0000000000,50.0000000000
1717675248273,195.0000000000,88.0000000000,69.0000000000,76.0000000000,189.0000000000,51.0000000000
1717675248273,194.0000000000,91.0000000000,69.0000000000,75.0000000000,188.0000000000,50.0000000000
1717675248274,193.0000000000,176.0000000000,68.0000000000,74.0000000000,188.0000000000,50.0000000000
1717675248274,192.0000000000,173.0000000000,68.0000000000,74.0000000000,186.0000000000,49.0000000000
1717675248274,191.0000000000,172.0000000000,68.0000000000,73.0000000000,185.0000000000,49.0000000000
1717675248274,190.0000000000,170.0000000000,67.0000000000,72.0000000000,184.0000000000,48.0000000000
1717675248274,188.0000000000,169.0000000000,67.0000000000,71.0000000000,183.0000000000,48.0000000000
1717675248292,188.0000000000,167.0000000000,67.0000000000,71.0000000000,182.0000000000,48.0000000000
1717675248293,187.0000000000,167.0000000000,67.0000000000,71.0000000000,181.0000000000,48.0000000000
1717675248293,185.0000000000,166.0000000000,66.0000000000,71.0000000000,180.0000000000,48.0000000000
1717675248293,184.0000000000,183.0000000000,66.0000000000,71.0000000000,235.0000000000,47.0000000000
1717675248293,183.0000000000,180.0000000000,65.0000000000,71.0000000000,231.0000000000,47.0000000000
1717675248294,182.0000000000,179.0000000000,65.0000000000,70.0000000000,231.0000000000,47.0000000000
1717675248294,276.0000000000,178.0000000000,64.0000000000,70.0000000000,230.0000000000,47.0000000000
1717675248294,302.0000000000,176.0000000000,63.0000000000,70.0000000000,227.0000000000,46.0000000000
1717675248294,300.0000000000,175.0000000000,63.0000000000,68.0000000000,315.0000000000,46.0000000000
1717675248294,295.0000000000,174.0000000000,63.0000000000,68.0000000000,311.0000000000,45.0000000000
1717675248294,294.0000000000,173.0000000000,63.0000000000,67.0000000000,308.0000000000,45.0000000000
1717675248308,291.0000000000,172.0000000000,63.0000000000,67.0000000000,306.0000000000,45.0000000000
1717675248309,289.0000000000,171.0000000000,62.0000000000,67.0000000000,304.0000000000,44.0000000000
1717675248309,287.0000000000,169.0000000000,61.0000000000,67.0000000000,365.0000000000,44.0000000000
1717675248309,285.0000000000,167.0000000000,62.0000000000,76.0000000000,359.0000000000,44.0000000000
1717675248309,283.0000000000,167.0000000000,61.0000000000,76.0000000000,356.0000000000,44.0000000000
1717675248309,281.0000000000,166.0000000000,60.0000000000,75.0000000000,353.0000000000,44.0000000000
1717675248309,279.0000000000,164.0000000000,60.0000000000,75.0000000000,351.0000000000,43.0000000000
1717675248309,277.0000000000,163.0000000000,60.0000000000,74.0000000000,348.0000000000,43.0000000000
1717675248325,275.0000000000,163.0000000000,60.0000000000,74.0000000000,345.0000000000,42.0000000000
1717675248327,273.0000000000,161.0000000000,59.0000000000,73.0000000000,343.0000000000,43.0000000000
1717675248327,271.0000000000,160.0000000000,59.0000000000,73.0000000000,340.0000000000,42.0000000000
1717675248328,269.0000000000,159.0000000000,59.0000000000,71.0000000000,338.0000000000,41.0000000000
1717675248328,268.0000000000,159.0000000000,59.0000000000,71.0000000000,335.0000000000,41.0000000000
1717675248328,265.0000000000,158.0000000000,108.0000000000,71.0000000000,333.0000000000,41.0000000000
1717675248328,263.0000000000,156.0000000000,107.0000000000,71.0000000000,331.0000000000,41.0000000000
1717675248329,262.0000000000,156.0000000000,105.0000000000,70.0000000000,327.0000000000,40.0000000000
1717675248329,260.0000000000,155.0000000000,103.0000000000,70.0000000000,326.0000000000,39.0000000000
1717675248330,258.0000000000,153.0000000000,103.0000000000,70.0000000000,323.0000000000,39.0000000000
1717675248330,255.0000000000,152.0000000000,103.0000000000,68.0000000000,321.0000000000,39.0000000000
1717675248358,255.0000000000,152.0000000000,103.0000000000,68.0000000000,319.0000000000,39.0000000000
1717675248358,252.0000000000,151.0000000000,102.0000000000,67.0000000000,316.0000000000,39.0000000000
1717675248358,251.0000000000,150.0000000000,102.0000000000,67.0000000000,315.0000000000,39.0000000000
1717675248358,249.0000000000,148.0000000000,100.0000000000,67.0000000000,312.0000000000,39.0000000000
1717675248358,248.0000000000,147.0000000000,99.0000000000,67.0000000000,310.0000000000,39.0000000000
1717675248359,247.0000000000,147.0000000000,99.0000000000,66.0000000000,307.0000000000,39.0000000000
1717675248359,244.0000000000,146.0000000000,98.0000000000,65.0000000000,306.0000000000,38.0000000000
1717675248359,243.0000000000,145.0000000000,98.0000000000,65.0000000000,304.0000000000,38.0000000000
1717675248359,287.0000000000,144.0000000000,97.0000000000,65.0000000000,303.0000000000,38.0000000000
1717675248359,327.0000000000,225.0000000000,97.0000000000,63.0000000000,300.0000000000,38.0000000000
1717675248359,324.0000000000,223.0000000000,96.0000000000,63.0000000000,297.0000000000,37.0000000000
1717675248359,321.0000000000,220.0000000000,95.0000000000,63.0000000000,295.0000000000,36.0000000000
1717675248359,319.0000000000,220.0000000000,95.0000000000,63.0000000000,294.0000000000,37.0000000000
1717675248359,316.0000000000,231.0000000000,94.0000000000,63.0000000000,292.0000000000,36.0000000000
1717675248359,314.0000000000,229.0000000000,94.0000000000,62.0000000000,290.0000000000,36.0000000000
1717675248374,312.0000000000,227.0000000000,93.0000000000,63.0000000000,288.0000000000,35.0000000000
1717675248375,310.0000000000,225.0000000000,92.0000000000,62.0000000000,287.0000000000,35.0000000000
1717675248375,307.0000000000,224.0000000000,92.0000000000,62.0000000000,285.0000000000,35.0000000000
1717675248375,305.0000000000,222.0000000000,91.0000000000,61.0000000000,283.0000000000,35.0000000000
1717675248375,303.0000000000,220.0000000000,91.0000000000,60.0000000000,281.0000000000,35.0000000000
1717675248375,300.0000000000,220.0000000000,91.0000000000,60.0000000000,280.0000000000,35.0000000000
1717675248375,298.0000000000,217.0000000000,89.0000000000,60.0000000000,278.0000000000,34.0000000000
1717675248375,295.0000000000,216.0000000000,89.0000000000,60.0000000000,275.0000000000,112.0000000000
1717675248376,294.0000000000,215.0000000000,88.0000000000,89.0000000000,274.0000000000,120.0000000000
1717675248394,292.0000000000,214.0000000000,88.0000000000,88.0000000000,272.0000000000,118.0000000000
1717675248395,289.0000000000,211.0000000000,88.0000000000,88.0000000000,271.0000000000,116.0000000000
1717675248396,287.0000000000,210.0000000000,88.0000000000,87.0000000000,269.0000000000,115.0000000000
1717675248396,286.0000000000,209.0000000000,87.0000000000,87.0000000000,267.0000000000,115.0000000000
1717675248396,284.0000000000,207.0000000000,86.0000000000,86.0000000000,265.0000000000,114.0000000000
1717675248397,281.0000000000,206.0000000000,86.0000000000,85.0000000000,263.0000000000,113.0000000000
1717675248397,280.0000000000,205.0000000000,85.0000000000,84.0000000000,263.0000000000,112.0000000000
1717675248397,277.0000000000,203.0000000000,83.0000000000,83.0000000000,261.0000000000,111.0000000000
1717675248398,275.0000000000,201.0000000000,83.0000000000,83.0000000000,259.0000000000,111.0000000000
1717675248398,273.0000000000,200.0000000000,83.0000000000,83.0000000000,257.0000000000,110.0000000000
1717675248398,271.0000000000,199.0000000000,83.0000000000,82.0000000000,255.0000000000,109.0000000000
1717675248399,270.0000000000,198.0000000000,82.0000000000,81.0000000000,254.0000000000,108.0000000000
1717675248424,268.0000000000,196.0000000000,82.0000000000,80.0000000000,252.0000000000,108.0000000000
1717675248424,267.0000000000,195.0000000000,81.0000000000,79.0000000000,251.0000000000,107.0000000000
1717675248425,263.0000000000,194.0000000000,81.0000000000,79.0000000000,249.0000000000,106.0000000000
1717675248425,287.0000000000,193.0000000000,80.0000000000,79.0000000000,248.0000000000,105.0000000000
1717675248425,286.0000000000,192.0000000000,79.0000000000,79.0000000000,247.0000000000,105.0000000000
1717675248425,284.0000000000,190.0000000000,79.0000000000,78.0000000000,245.0000000000,103.0000000000
1717675248425,280.0000000000,190.0000000000,79.0000000000,78.0000000000,243.0000000000,103.0000000000
1717675248426,279.0000000000,188.0000000000,78.0000000000,77.0000000000,242.0000000000,103.0000000000
1717675248426,277.0000000000,188.0000000000,78.0000000000,76.0000000000,241.0000000000,102.0000000000
1717675248426,274.0000000000,185.0000000000,77.0000000000,76.0000000000,239.0000000000,102.0000000000
1717675248426,272.0000000000,185.0000000000,77.0000000000,76.0000000000,238.0000000000,101.0000000000
1717675248426,271.0000000000,184.0000000000,76.0000000000,75.0000000000,236.0000000000,100.0000000000
1717675248427,268.0000000000,183.0000000000,76.0000000000,75.0000000000,235.0000000000,99.0000000000
1717675248440,267.0000000000,182.0000000000,76.0000000000,74.0000000000,233.0000000000,99.0000000000
1717675248441,264.0000000000,180.0000000000,75.0000000000,73.0000000000,231.0000000000,99.0000000000
1717675248441,263.0000000000,179.0000000000,75.0000000000,73.0000000000,231.0000000000,97.0000000000
1717675248442,262.0000000000,179.0000000000,74.0000000000,73.0000000000,230.0000000000,97.0000000000
1717675248442,259.0000000000,235.0000000000,73.0000000000,71.0000000000,227.0000000000,96.0000000000
1717675248442,257.0000000000,233.0000000000,73.0000000000,71.0000000000,227.0000000000,96.0000000000
1717675248442,255.0000000000,231.0000000000,71.0000000000,71.0000000000,225.0000000000,96.0000000000
1717675248442,255.0000000000,230.0000000000,72.0000000000,71.0000000000,224.0000000000,95.0000000000
1717675248443,253.0000000000,227.0000000000,71.0000000000,70.0000000000,224.0000000000,94.0000000000
1717675248459,252.0000000000,226.0000000000,71.0000000000,70.0000000000,222.0000000000,94.0000000000
1717675248459,249.0000000000,224.0000000000,71.0000000000,70.0000000000,221.0000000000,93.0000000000
1717675248459,248.0000000000,223.0000000000,71.0000000000,70.0000000000,220.0000000000,92.0000000000
1717675248459,247.0000000000,222.0000000000,70.0000000000,68.0000000000,218.0000000000,92.0000000000
1717675248459,245.0000000000,220.0000000000,70.0000000000,68.0000000000,216.0000000000,92.0000000000
1717675248460,275.0000000000,219.0000000000,70.0000000000,68.0000000000,216.0000000000,91.0000000000
1717675248460,272.0000000000,217.0000000000,69.0000000000,67.0000000000,215.0000000000,89.0000000000
1717675248460,270.0000000000,216.0000000000,68.0000000000,67.0000000000,214.0000000000,89.0000000000
1717675248460,268.0000000000,214.0000000000,68.0000000000,67.0000000000,212.0000000000,89.0000000000
1717675248460,266.0000000000,214.0000000000,68.0000000000,67.0000000000,211.0000000000,88.0000000000
1717675248460,263.0000000000,211.0000000000,67.0000000000,66.0000000000,223.0000000000,88.0000000000
1717675248474,263.0000000000,210.0000000000,67.0000000000,65.0000000000,287.0000000000,88.0000000000
1717675248475,260.0000000000,209.0000000000,67.0000000000,65.0000000000,285.0000000000,88.0000000000
1717675248475,259.0000000000,207.0000000000,66.0000000000,64.0000000000,283.0000000000,87.0000000000
1717675248475,255.0000000000,206.0000000000,66.0000000000,64.0000000000,281.0000000000,86.0000000000
1717675248475,255.0000000000,205.0000000000,65.0000000000,64.0000000000,280.0000000000,86.0000000000
1717675248476,253.0000000000,204.0000000000,65.0000000000,84.0000000000,277.0000000000,86.0000000000
1717675248492,252.0000000000,203.0000000000,65.0000000000,120.0000000000,275.0000000000,84.0000000000
1717675248493,249.0000000000,201.0000000000,64.0000000000,119.0000000000,272.0000000000,83.0000000000
1717675248493,248.0000000000,199.0000000000,63.0000000000,120.0000000000,271.0000000000,83.0000000000
1717675248493,247.0000000000,199.0000000000,63.0000000000,119.0000000000,268.0000000000,83.0000000000
1717675248493,244.0000000000,198.0000000000,63.0000000000,118.0000000000,267.0000000000,82.0000000000
1717675248493,243.0000000000,196.0000000000,82.0000000000,116.0000000000,265.0000000000,82.0000000000
1717675248493,241.0000000000,195.0000000000,81.0000000000,115.0000000000,263.0000000000,81.0000000000
1717675248493,240.0000000000,193.0000000000,80.0000000000,115.0000000000,262.0000000000,81.0000000000
1717675248493,238.0000000000,192.0000000000,79.0000000000,114.0000000000,259.0000000000,80.0000000000
1717675248493,236.0000000000,191.0000000000,79.0000000000,113.0000000000,258.0000000000,79.0000000000
1717675248494,235.0000000000,190.0000000000,79.0000000000,112.0000000000,255.0000000000,79.0000000000
1717675248509,233.0000000000,188.0000000000,79.0000000000,112.0000000000,254.0000000000,79.0000000000
1717675248510,231.0000000000,187.0000000000,78.0000000000,111.0000000000,252.0000000000,79.0000000000
1717675248510,231.0000000000,185.0000000000,78.0000000000,110.0000000000,251.0000000000,78.0000000000
1717675248510,229.0000000000,185.0000000000,77.0000000000,109.0000000000,249.0000000000,78.0000000000
1717675248511,227.0000000000,184.0000000000,76.0000000000,108.0000000000,248.0000000000,77.0000000000
1717675248511,226.0000000000,183.0000000000,76.0000000000,108.0000000000,246.0000000000,77.0000000000
1717675248511,225.0000000000,182.0000000000,75.0000000000,107.0000000000,244.0000000000,76.0000000000
1717675248511,303.0000000000,180.0000000000,75.0000000000,107.0000000000,243.0000000000,76.0000000000
1717675248530,399.0000000000,179.0000000000,75.0000000000,105.0000000000,241.0000000000,76.0000000000
1717675248530,394.0000000000,178.0000000000,73.0000000000,105.0000000000,240.0000000000,75.0000000000
1717675248531,391.0000000000,177.0000000000,73.0000000000,104.0000000000,238.0000000000,75.0000000000
1717675248531,387.0000000000,176.0000000000,73.0000000000,103.0000000000,236.0000000000,74.0000000000
1717675248531,384.0000000000,175.0000000000,71.0000000000,103.0000000000,235.0000000000,73.0000000000
1717675248531,380.0000000000,174.0000000000,71.0000000000,102.0000000000,233.0000000000,73.0000000000
1717675248531,376.0000000000,172.0000000000,71.0000000000,102.0000000000,283.0000000000,72.0000000000
1717675248531,374.0000000000,172.0000000000,71.0000000000,100.0000000000,305.0000000000,71.0000000000
1717675248531,371.0000000000,171.0000000000,71.0000000000,100.0000000000,302.0000000000,71.0000000000
1717675248531,368.0000000000,169.0000000000,70.0000000000,99.0000000000,300.0000000000,71.0000000000
1717675248531,364.0000000000,167.0000000000,70.0000000000,99.0000000000,297.0000000000,71.0000000000
1717675248545,361.0000000000,167.0000000000,70.0000000000,98.0000000000,295.0000000000,70.0000000000
1717675248546,359.0000000000,167.0000000000,69.0000000000,97.0000000000,294.0000000000,70.0000000000
1717675248547,356.0000000000,165.0000000000,68.0000000000,97.0000000000,291.0000000000,69.0000000000
1717675248547,353.0000000000,164.0000000000,68.0000000000,96.0000000000,289.0000000000,70.0000000000
1717675248547,352.0000000000,164.0000000000,67.0000000000,96.0000000000,287.0000000000,68.0000000000
1717675248547,349.0000000000,163.0000000000,67.0000000000,95.0000000000,286.0000000000,68.0000000000
1717675248547,346.0000000000,205.0000000000,67.0000000000,95.0000000000,283.0000000000,68.0000000000
1717675248548,344.0000000000,204.0000000000,66.0000000000,94.0000000000,282.0000000000,67.0000000000
1717675248564,342.0000000000,201.0000000000,66.0000000000,94.0000000000,280.0000000000,67.0000000000
1717675248565,339.0000000000,200.0000000000,65.0000000000,93.0000000000,278.0000000000,67.0000000000
1717675248565,336.0000000000,199.0000000000,65.0000000000,92.0000000000,275.0000000000,67.0000000000
1717675248565,334.0000000000,198.0000000000,65.0000000000,92.0000000000,274.0000000000,66.0000000000
1717675248565,332.0000000000,196.0000000000,63.0000000000,91.0000000000,272.0000000000,65.0000000000
1717675248565,388.0000000000,195.0000000000,63.0000000000,91.0000000000,271.0000000000,65.0000000000
1717675248565,384.0000000000,194.0000000000,63.0000000000,89.0000000000,269.0000000000,65.0000000000
1717675248566,380.0000000000,193.0000000000,63.0000000000,89.0000000000,267.0000000000,64.0000000000
1717675248566,376.0000000000,192.0000000000,63.0000000000,88.0000000000,265.0000000000,64.0000000000
1717675248567,374.0000000000,190.0000000000,63.0000000000,88.0000000000,263.0000000000,63.0000000000
1717675248567,370.0000000000,189.0000000000,62.0000000000,88.0000000000,262.0000000000,63.0000000000
1717675248581,368.0000000000,188.0000000000,62.0000000000,88.0000000000,260.0000000000,63.0000000000
1717675248582,364.0000000000,187.0000000000,61.0000000000,131.0000000000,258.0000000000,63.0000000000
1717675248582,361.0000000000,185.0000000000,61.0000000000,129.0000000000,257.0000000000,63.0000000000
1717675248582,359.0000000000,184.0000000000,61.0000000000,129.0000000000,255.0000000000,62.0000000000
1717675248583,355.0000000000,183.0000000000,60.0000000000,127.0000000000,254.0000000000,62.0000000000
1717675248583,353.0000000000,182.0000000000,60.0000000000,127.0000000000,252.0000000000,61.0000000000
1717675248583,351.0000000000,295.0000000000,60.0000000000,126.0000000000,250.0000000000,60.0000000000
1717675248583,348.0000000000,352.0000000000,59.0000000000,125.0000000000,248.0000000000,60.0000000000
1717675248584,344.0000000000,348.0000000000,59.0000000000,124.0000000000,248.0000000000,60.0000000000
1717675248596,342.0000000000,344.0000000000,59.0000000000,123.0000000000,245.0000000000,60.0000000000
1717675248597,339.0000000000,342.0000000000,59.0000000000,122.0000000000,243.0000000000,60.0000000000
1717675248597,336.0000000000,339.0000000000,60.0000000000,122.0000000000,241.0000000000,59.0000000000
1717675248597,334.0000000000,336.0000000000,60.0000000000,121.0000000000,240.0000000000,59.0000000000
1717675248597,332.0000000000,334.0000000000,59.0000000000,120.0000000000,239.0000000000,59.0000000000
1717675248597,329.0000000000,332.0000000000,59.0000000000,119.0000000000,237.0000000000,57.0000000000
1717675248613,327.0000000000,329.0000000000,59.0000000000,119.0000000000,236.0000000000,57.0000000000
1717675248613,324.0000000000,327.0000000000,57.0000000000,118.0000000000,235.0000000000,57.0000000000
1717675248613,323.0000000000,323.0000000000,57.0000000000,116.0000000000,233.0000000000,56.0000000000
1717675248614,319.0000000000,321.0000000000,57.0000000000,115.0000000000,231.0000000000,57.0000000000
1717675248614,318.0000000000,319.0000000000,56.0000000000,115.0000000000,231.0000000000,71.0000000000
1717675248614,316.0000000000,316.0000000000,56.0000000000,114.0000000000,228.0000000000,70.0000000000
1717675248614,312.0000000000,315.0000000000,56.0000000000,113.0000000000,227.0000000000,70.0000000000
1717675248614,311.0000000000,312.0000000000,56.0000000000,113.0000000000,225.0000000000,69.0000000000
1717675248628,308.0000000000,310.0000000000,56.0000000000,112.0000000000,224.0000000000,69.0000000000
1717675248629,307.0000000000,307.0000000000,55.0000000000,111.0000000000,224.0000000000,68.0000000000
1717675248629,305.0000000000,305.0000000000,55.0000000000,111.0000000000,222.0000000000,68.0000000000
1717675248629,303.0000000000,303.0000000000,55.0000000000,110.0000000000,220.0000000000,67.0000000000
1717675248629,300.0000000000,301.0000000000,54.0000000000,109.0000000000,219.0000000000,66.0000000000
1717675248630,299.0000000000,299.0000000000,54.0000000000,108.0000000000,217.0000000000,66.0000000000
1717675248630,295.0000000000,297.0000000000,53.0000000000,108.0000000000,216.0000000000,65.0000000000
1717675248630,294.0000000000,295.0000000000,54.0000000000,107.0000000000,215.0000000000,65.0000000000
1717675248630,292.0000000000,292.0000000000,53.0000000000,106.0000000000,214.0000000000,65.0000000000
1717675248653,291.0000000000,291.0000000000,52.0000000000,105.0000000000,212.0000000000,65.0000000000
1717675248656,287.0000000000,288.0000000000,52.0000000000,104.0000000000,211.0000000000,63.0000000000
1717675248656,286.0000000000,287.0000000000,51.0000000000,103.0000000000,210.0000000000,63.0000000000
1717675248657,284.0000000000,285.0000000000,52.0000000000,103.0000000000,208.0000000000,63.0000000000
1717675248657,283.0000000000,283.0000000000,51.0000000000,103.0000000000,207.0000000000,63.0000000000
1717675248658,280.0000000000,280.0000000000,51.0000000000,102.0000000000,207.0000000000,62.0000000000
1717675248659,279.0000000000,279.0000000000,51.0000000000,102.0000000000,207.0000000000,62.0000000000
1717675248659,277.0000000000,277.0000000000,50.0000000000,101.0000000000,212.0000000000,62.0000000000
1717675248660,275.0000000000,275.0000000000,50.0000000000,100.0000000000,211.0000000000,61.0000000000
1717675248661,273.0000000000,273.0000000000,50.0000000000,99.0000000000,209.0000000000,60.0000000000
1717675248661,271.0000000000,271.0000000000,49.0000000000,108.0000000000,208.0000000000,60.0000000000
1717675248662,270.0000000000,270.0000000000,49.0000000000,163.0000000000,207.0000000000,60.0000000000
1717675248663,268.0000000000,268.0000000000,49.0000000000,161.0000000000,206.0000000000,60.0000000000
1717675248663,267.0000000000,267.0000000000,48.0000000000,160.0000000000,204.0000000000,59.0000000000
1717675248665,264.0000000000,264.0000000000,48.0000000000,159.0000000000,204.0000000000,59.0000000000
1717675248666,263.0000000000,263.0000000000,48.0000000000,158.0000000000,202.0000000000,59.0000000000
1717675248667,262.0000000000,262.0000000000,48.0000000000,156.0000000000,200.0000000000,58.0000000000
1717675248669,259.0000000000,259.0000000000,48.0000000000,156.0000000000,265.0000000000,58.0000000000
1717675248670,258.0000000000,257.0000000000,48.0000000000,154.0000000000,263.0000000000,57.0000000000
1717675248671,255.0000000000,255.0000000000,47.0000000000,153.0000000000,260.0000000000,57.0000000000
1717675248673,255.0000000000,255.0000000000,47.0000000000,152.0000000000,258.0000000000,56.0000000000
1717675248674,253.0000000000,253.0000000000,46.0000000000,151.0000000000,255.0000000000,56.0000000000
1717675248675,299.0000000000,252.0000000000,47.0000000000,150.0000000000,254.0000000000,56.0000000000
1717675248710,354.0000000000,250.0000000000,46.0000000000,150.0000000000,252.0000000000,56.0000000000
1717675248711,351.0000000000,248.0000000000,46.0000000000,148.0000000000,251.0000000000,56.0000000000
1717675248711,348.0000000000,248.0000000000,48.0000000000,147.0000000000,249.0000000000,55.0000000000
1717675248711,344.0000000000,246.0000000000,48.0000000000,146.0000000000,248.0000000000,55.0000000000
1717675248711,342.0000000000,243.0000000000,48.0000000000,145.0000000000,246.0000000000,54.0000000000
1717675248711,339.0000000000,242.0000000000,47.0000000000,143.0000000000,243.0000000000,54.0000000000
1717675248712,335.0000000000,240.0000000000,47.0000000000,143.0000000000,243.0000000000,54.0000000000
1717675248712,333.0000000000,240.0000000000,47.0000000000,142.0000000000,240.0000000000,53.0000000000
1717675248712,331.0000000000,238.0000000000,47.0000000000,142.0000000000,239.0000000000,53.0000000000
1717675248712,327.0000000000,236.0000000000,46.0000000000,140.0000000000,237.0000000000,69.0000000000
1717675248712,326.0000000000,235.0000000000,46.0000000000,139.0000000000,236.0000000000,67.0000000000
1717675248712,323.0000000000,233.0000000000,46.0000000000,139.0000000000,234.0000000000,67.0000000000
1717675248712,320.0000000000,231.0000000000,46.0000000000,137.0000000000,232.0000000000,67.0000000000
1717675248713,319.0000000000,231.0000000000,45.0000000000,137.0000000000,231.0000000000,67.0000000000
1717675248713,316.0000000000,229.0000000000,44.0000000000,135.0000000000,230.0000000000,66.0000000000
1717675248713,313.0000000000,227.0000000000,44.0000000000,135.0000000000,228.0000000000,66.0000000000
1717675248713,312.0000000000,227.0000000000,44.0000000000,134.0000000000,227.0000000000,65.0000000000
1717675248713,308.0000000000,225.0000000000,44.0000000000,133.0000000000,225.0000000000,64.0000000000
1717675248714,307.0000000000,224.0000000000,44.0000000000,131.0000000000,224.0000000000,64.0000000000
1717675248714,304.0000000000,223.0000000000,44.0000000000,131.0000000000,222.0000000000,63.0000000000
1717675248714,302.0000000000,220.0000000000,43.0000000000,130.0000000000,221.0000000000,63.0000000000
1717675248734,300.0000000000,220.0000000000,43.0000000000,130.0000000000,219.0000000000,63.0000000000
1717675248735,297.0000000000,219.0000000000,46.0000000000,129.0000000000,218.0000000000,63.0000000000
1717675248735,295.0000000000,217.0000000000,46.0000000000,127.0000000000,216.0000000000,62.0000000000
1717675248735,294.0000000000,216.0000000000,46.0000000000,127.0000000000,215.0000000000,62.0000000000
1717675248735,291.0000000000,214.0000000000,45.0000000000,126.0000000000,214.0000000000,61.0000000000
1717675248735,289.0000000000,214.0000000000,46.0000000000,126.0000000000,212.0000000000,61.0000000000
1717675248735,287.0000000000,212.0000000000,45.0000000000,124.0000000000,211.0000000000,60.0000000000
1717675248736,286.0000000000,211.0000000000,44.0000000000,124.0000000000,209.0000000000,60.0000000000
1717675248736,284.0000000000,209.0000000000,44.0000000000,123.0000000000,207.0000000000,60.0000000000
1717675248736,281.0000000000,207.0000000000,44.0000000000,123.0000000000,207.0000000000,59.0000000000
1717675248762,280.0000000000,207.0000000000,44.0000000000,121.0000000000,206.0000000000,59.0000000000
1717675248763,278.0000000000,206.0000000000,43.0000000000,121.0000000000,206.0000000000,76.0000000000
1717675248763,276.0000000000,204.0000000000,43.0000000000,120.0000000000,204.0000000000,75.0000000000
1717675248763,274.0000000000,203.0000000000,43.0000000000,120.0000000000,203.0000000000,74.0000000000
1717675248763,272.0000000000,202.0000000000,43.0000000000,118.0000000000,201.0000000000,73.0000000000
1717675248763,270.0000000000,199.0000000000,42.0000000000,118.0000000000,199.0000000000,73.0000000000
1717675248763,268.0000000000,199.0000000000,42.0000000000,117.0000000000,199.0000000000,71.0000000000
1717675248764,267.0000000000,199.0000000000,41.0000000000,115.0000000000,198.0000000000,71.0000000000
1717675248764,263.0000000000,197.0000000000,41.0000000000,115.0000000000,197.0000000000,71.0000000000
1717675248764,263.0000000000,196.0000000000,41.0000000000,115.0000000000,195.0000000000,71.0000000000
1717675248764,261.0000000000,195.0000000000,41.0000000000,114.0000000000,195.0000000000,71.0000000000
1717675248764,297.0000000000,304.0000000000,41.0000000000,113.0000000000,193.0000000000,70.0000000000
1717675248764,294.0000000000,300.0000000000,39.0000000000,112.0000000000,192.0000000000,70.0000000000
1717675248765,291.0000000000,297.0000000000,39.0000000000,112.0000000000,192.0000000000,69.0000000000
1717675248765,289.0000000000,295.0000000000,65.0000000000,112.0000000000,190.0000000000,68.0000000000
1717675248784,287.0000000000,292.0000000000,92.0000000000,111.0000000000,190.0000000000,68.0000000000
1717675248784,285.0000000000,290.0000000000,92.0000000000,110.0000000000,188.0000000000,67.0000000000
1717675248785,391.0000000000,288.0000000000,91.0000000000,109.0000000000,187.0000000000,67.0000000000
1717675248785,480.0000000000,286.0000000000,89.0000000000,108.0000000000,185.0000000000,67.0000000000
1717675248785,475.0000000000,284.0000000000,89.0000000000,108.0000000000,185.0000000000,66.0000000000
1717675248785,470.0000000000,281.0000000000,88.0000000000,107.0000000000,184.0000000000,65.0000000000
1717675248785,465.0000000000,280.0000000000,88.0000000000,106.0000000000,226.0000000000,65.0000000000
1717675248785,460.0000000000,278.0000000000,88.0000000000,115.0000000000,231.0000000000,65.0000000000
1717675248785,456.0000000000,276.0000000000,87.0000000000,114.0000000000,231.0000000000,64.0000000000
1717675248786,452.0000000000,275.0000000000,86.0000000000,117.0000000000,228.0000000000,63.0000000000
1717675248803,448.0000000000,272.0000000000,86.0000000000,116.0000000000,227.0000000000,63.0000000000
1717675248804,444.0000000000,270.0000000000,84.0000000000,115.0000000000,225.0000000000,63.0000000000
1717675248804,440.0000000000,268.0000000000,84.0000000000,115.0000000000,224.0000000000,63.0000000000
1717675248804,436.0000000000,267.0000000000,84.0000000000,114.0000000000,223.0000000000,63.0000000000
1717675248804,432.0000000000,263.0000000000,83.0000000000,112.0000000000,221.0000000000,62.0000000000
1717675248805,428.0000000000,263.0000000000,83.0000000000,112.0000000000,220.0000000000,62.0000000000
1717675248805,425.0000000000,261.0000000000,82.0000000000,111.0000000000,217.0000000000,61.0000000000
1717675248805,422.0000000000,259.0000000000,81.0000000000,111.0000000000,216.0000000000,61.0000000000
1717675248805,418.0000000000,257.0000000000,81.0000000000,154.0000000000,215.0000000000,60.0000000000
1717675248805,415.0000000000,255.0000000000,81.0000000000,153.0000000000,213.0000000000,60.0000000000
1717675248805,412.0000000000,254.0000000000,80.0000000000,152.0000000000,211.0000000000,60.0000000000
1717675248823,408.0000000000,252.0000000000,79.0000000000,150.0000000000,210.0000000000,60.0000000000
1717675248824,404.0000000000,251.0000000000,79.0000000000,150.0000000000,209.0000000000,59.0000000000
1717675248824,401.0000000000,248.0000000000,78.0000000000,148.0000000000,207.0000000000,59.0000000000
1717675248824,399.0000000000,248.0000000000,78.0000000000,147.0000000000,206.0000000000,58.0000000000
1717675248824,395.0000000000,246.0000000000,78.0000000000,146.0000000000,205.0000000000,58.0000000000
1717675248824,391.0000000000,243.0000000000,77.0000000000,145.0000000000,204.0000000000,57.0000000000
1717675248825,388.0000000000,243.0000000000,77.0000000000,144.0000000000,203.0000000000,57.0000000000
1717675248825,385.0000000000,241.0000000000,76.0000000000,143.0000000000,201.0000000000,56.0000000000
1717675248825,384.0000000000,240.0000000000,76.0000000000,143.0000000000,199.0000000000,56.0000000000
1717675248825,380.0000000000,238.0000000000,75.0000000000,141.0000000000,199.0000000000,56.0000000000
1717675248845,377.0000000000,236.0000000000,75.0000000000,140.0000000000,198.0000000000,56.0000000000
1717675248845,375.0000000000,235.0000000000,74.0000000000,140.0000000000,196.0000000000,55.0000000000
1717675248846,371.0000000000,233.0000000000,74.0000000000,138.0000000000,195.0000000000,55.0000000000
1717675248846,368.0000000000,231.0000000000,73.0000000000,137.0000000000,193.0000000000,55.0000000000
1717675248846,366.0000000000,230.0000000000,72.0000000000,136.0000000000,192.0000000000,54.0000000000
1717675248846,364.0000000000,229.0000000000,71.0000000000,135.0000000000,191.0000000000,54.0000000000
1717675248846,360.0000000000,227.0000000000,71.0000000000,135.0000000000,190.0000000000,53.0000000000
1717675248847,359.0000000000,225.0000000000,71.0000000000,134.0000000000,188.0000000000,53.0000000000
1717675248847,355.0000000000,225.0000000000,71.0000000000,132.0000000000,187.0000000000,52.0000000000
1717675248847,352.0000000000,223.0000000000,70.0000000000,131.0000000000,187.0000000000,52.0000000000
1717675248847,351.0000000000,222.0000000000,70.0000000000,131.0000000000,185.0000000000,52.0000000000
1717675248869,404.0000000000,220.0000000000,70.0000000000,131.0000000000,184.0000000000,52.0000000000
1717675248870,399.0000000000,219.0000000000,69.0000000000,129.0000000000,184.0000000000,51.0000000000
1717675248870,396.0000000000,217.0000000000,69.0000000000,128.0000000000,182.0000000000,51.0000000000
1717675248870,391.0000000000,216.0000000000,68.0000000000,127.0000000000,180.0000000000,51.0000000000
1717675248871,390.0000000000,215.0000000000,68.0000000000,126.0000000000,179.0000000000,51.0000000000
1717675248871,386.0000000000,214.0000000000,67.0000000000,126.0000000000,179.0000000000,51.0000000000
1717675248871,383.0000000000,212.0000000000,67.0000000000,125.0000000000,178.0000000000,49.0000000000
1717675248871,380.0000000000,262.0000000000,67.0000000000,124.0000000000,177.0000000000,49.0000000000
1717675248871,376.0000000000,358.0000000000,67.0000000000,124.0000000000,176.0000000000,49.0000000000
1717675248871,373.0000000000,355.0000000000,66.0000000000,123.0000000000,175.0000000000,49.0000000000
1717675248872,371.0000000000,352.0000000000,65.0000000000,122.0000000000,174.0000000000,49.0000000000
1717675248872,367.0000000000,348.0000000000,65.0000000000,121.0000000000,173.0000000000,48.0000000000
1717675248892,364.0000000000,345.0000000000,65.0000000000,120.0000000000,172.0000000000,48.0000000000
1717675248895,361.0000000000,343.0000000000,65.0000000000,120.0000000000,172.0000000000,48.0000000000
1717675248895,359.0000000000,339.0000000000,63.0000000000,119.0000000000,171.0000000000,47.0000000000
1717675248896,356.0000000000,337.0000000000,63.0000000000,118.0000000000,169.0000000000,47.0000000000
1717675248897,353.0000000000,335.0000000000,63.0000000000,117.0000000000,167.0000000000,47.0000000000
1717675248898,350.0000000000,332.0000000000,63.0000000000,116.0000000000,167.0000000000,46.0000000000
1717675248898,348.0000000000,329.0000000000,63.0000000000,116.0000000000,167.0000000000,46.0000000000
1717675248899,345.0000000000,327.0000000000,62.0000000000,115.0000000000,166.0000000000,46.0000000000
1717675248900,343.0000000000,324.0000000000,62.0000000000,114.0000000000,165.0000000000,46.0000000000
1717675248901,340.0000000000,322.0000000000,61.0000000000,142.0000000000,164.0000000000,45.0000000000
1717675248901,337.0000000000,319.0000000000,61.0000000000,141.0000000000,163.0000000000,46.0000000000
1717675248902,335.0000000000,318.0000000000,61.0000000000,140.0000000000,162.0000000000,45.0000000000
1717675248903,333.0000000000,316.0000000000,60.0000000000,139.0000000000,227.0000000000,45.0000000000
1717675248903,331.0000000000,313.0000000000,60.0000000000,137.0000000000,225.0000000000,45.0000000000
1717675248904,327.0000000000,311.0000000000,60.0000000000,137.0000000000,224.0000000000,44.0000000000
1717675248904,326.0000000000,308.0000000000,60.0000000000,135.0000000000,222.0000000000,44.0000000000
1717675248906,324.0000000000,307.0000000000,59.0000000000,135.0000000000,220.0000000000,44.0000000000
1717675248906,322.0000000000,304.0000000000,59.0000000000,134.0000000000,219.0000000000,70.0000000000
1717675248907,319.0000000000,302.0000000000,59.0000000000,133.0000000000,217.0000000000,70.0000000000
1717675248945,318.0000000000,300.0000000000,57.0000000000,132.0000000000,216.0000000000,69.0000000000
1717675248946,315.0000000000,297.0000000000,57.0000000000,131.0000000000,215.0000000000,68.0000000000
1717675248946,313.0000000000,295.0000000000,57.0000000000,130.0000000000,212.0000000000,67.0000000000
1717675248946,312.0000000000,294.0000000000,57.0000000000,129.0000000000,211.0000000000,67.0000000000
1717675248946,309.0000000000,291.0000000000,56.0000000000,129.0000000000,210.0000000000,67.0000000000
1717675248947,307.0000000000,289.0000000000,56.0000000000,127.0000000000,208.0000000000,67.0000000000
1717675248947,305.0000000000,287.0000000000,56.0000000000,127.0000000000,207.0000000000,66.0000000000
1717675248947,303.0000000000,286.0000000000,56.0000000000,126.0000000000,205.0000000000,65.0000000000
1717675248947,301.0000000000,284.0000000000,56.0000000000,125.0000000000,204.0000000000,65.0000000000
1717675248947,299.0000000000,283.0000000000,55.0000000000,124.0000000000,203.0000000000,65.0000000000
1717675248947,296.0000000000,280.0000000000,55.0000000000,124.0000000000,201.0000000000,64.0000000000
1717675248947,295.0000000000,278.0000000000,55.0000000000,123.0000000000,199.0000000000,63.0000000000
1717675248948,293.0000000000,276.0000000000,54.0000000000,121.0000000000,199.0000000000,63.0000000000
1717675248948,291.0000000000,275.0000000000,54.0000000000,121.0000000000,198.0000000000,63.0000000000
1717675248948,413.0000000000,273.0000000000,54.0000000000,120.0000000000,196.0000000000,63.0000000000
1717675248948,578.0000000000,271.0000000000,54.0000000000,120.0000000000,195.0000000000,62.0000000000
1717675248948,569.0000000000,269.0000000000,54.0000000000,119.0000000000,194.0000000000,62.0000000000
1717675248948,563.0000000000,267.0000000000,52.0000000000,118.0000000000,192.0000000000,62.0000000000
1717675248949,556.0000000000,265.0000000000,52.0000000000,117.0000000000,192.0000000000,60.0000000000
1717675248949,551.0000000000,263.0000000000,52.0000000000,116.0000000000,190.0000000000,60.0000000000
1717675248949,545.0000000000,263.0000000000,51.0000000000,115.0000000000,189.0000000000,60.0000000000
1717675248967,540.0000000000,319.0000000000,51.0000000000,115.0000000000,188.0000000000,60.0000000000
1717675248968,534.0000000000,384.0000000000,51.0000000000,114.0000000000,187.0000000000,59.0000000000
1717675248968,528.0000000000,377.0000000000,50.0000000000,113.0000000000,185.0000000000,59.0000000000
1717675248968,524.0000000000,375.0000000000,50.0000000000,112.0000000000,184.0000000000,59.0000000000
1717675248968,519.0000000000,371.0000000000,51.0000000000,112.0000000000,184.0000000000,57.0000000000
1717675248969,513.0000000000,368.0000000000,50.0000000000,111.0000000000,182.0000000000,58.0000000000
1717675248969,509.0000000000,365.0000000000,50.0000000000,110.0000000000,180.0000000000,57.0000000000
1717675248969,504.0000000000,362.0000000000,49.0000000000,110.0000000000,179.0000000000,57.0000000000
1717675248969,499.0000000000,359.0000000000,50.0000000000,109.0000000000,179.0000000000,56.0000000000
1717675248969,495.0000000000,356.0000000000,49.0000000000,108.0000000000,177.0000000000,56.0000000000
1717675248969,491.0000000000,353.0000000000,49.0000000000,109.0000000000,176.0000000000,56.0000000000
1717675248986,486.0000000000,350.0000000000,49.0000000000,109.0000000000,175.0000000000,56.0000000000
1717675248987,482.0000000000,348.0000000000,48.0000000000,108.0000000000,174.0000000000,56.0000000000
1717675248987,478.0000000000,345.0000000000,48.0000000000,107.0000000000,173.0000000000,55.0000000000
1717675248987,473.0000000000,344.0000000000,48.0000000000,106.0000000000,172.0000000000,55.0000000000
1717675248987,470.0000000000,340.0000000000,48.0000000000,105.0000000000,171.0000000000,54.0000000000
1717675248988,465.0000000000,338.0000000000,47.0000000000,105.0000000000,170.0000000000,54.0000000000
1717675248988,462.0000000000,335.0000000000,47.0000000000,114.0000000000,169.0000000000,54.0000000000
1717675248988,459.0000000000,333.0000000000,47.0000000000,195.0000000000,167.0000000000,52.0000000000
1717675248989,455.0000000000,331.0000000000,46.0000000000,193.0000000000,167.0000000000,52.0000000000
1717675248989,450.0000000000,327.0000000000,46.0000000000,192.0000000000,166.0000000000,52.0000000000
1717675249008,447.0000000000,326.0000000000,46.0000000000,190.0000000000,164.0000000000,55.0000000000
1717675249009,443.0000000000,323.0000000000,46.0000000000,188.0000000000,163.0000000000,55.0000000000
1717675249010,440.0000000000,321.0000000000,45.0000000000,188.0000000000,163.0000000000,55.0000000000
1717675249010,436.0000000000,319.0000000000,45.0000000000,186.0000000000,285.0000000000,54.0000000000
1717675249010,432.0000000000,316.0000000000,45.0000000000,185.0000000000,286.0000000000,54.0000000000
1717675249010,429.0000000000,315.0000000000,44.0000000000,184.0000000000,283.0000000000,53.0000000000
1717675249010,425.0000000000,312.0000000000,44.0000000000,183.0000000000,280.0000000000,89.0000000000
1717675249011,422.0000000000,311.0000000000,44.0000000000,181.0000000000,279.0000000000,88.0000000000
1717675249011,419.0000000000,308.0000000000,44.0000000000,180.0000000000,276.0000000000,88.0000000000
1717675249011,415.0000000000,306.0000000000,44.0000000000,179.0000000000,275.0000000000,87.0000000000
1717675249011,412.0000000000,304.0000000000,43.0000000000,177.0000000000,271.0000000000,87.0000000000
1717675249030,409.0000000000,302.0000000000,43.0000000000,176.0000000000,271.0000000000,86.0000000000
1717675249031,406.0000000000,300.0000000000,43.0000000000,175.0000000000,268.0000000000,84.0000000000
1717675249032,403.0000000000,297.0000000000,42.0000000000,174.0000000000,267.0000000000,84.0000000000
1717675249032,399.0000000000,295.0000000000,42.0000000000,172.0000000000,264.0000000000,83.0000000000
1717675249032,590.0000000000,294.0000000000,41.0000000000,171.0000000000,263.0000000000,83.0000000000
1717675249032,580.0000000000,291.0000000000,41.0000000000,170.0000000000,262.0000000000,83.0000000000
1717675249033,630.0000000000,291.0000000000,42.0000000000,169.0000000000,259.0000000000,82.0000000000
1717675249033,620.0000000000,287.0000000000,41.0000000000,167.0000000000,257.0000000000,81.0000000000
1717675249034,613.0000000000,287.0000000000,41.0000000000,167.0000000000,255.0000000000,81.0000000000
1717675249034,606.0000000000,284.0000000000,41.0000000000,166.0000000000,254.0000000000,80.0000000000
1717675249034,600.0000000000,283.0000000000,39.0000000000,164.0000000000,252.0000000000,79.0000000000
1717675249034,593.0000000000,280.0000000000,39.0000000000,163.0000000000,251.0000000000,79.0000000000
1717675249053,587.0000000000,280.0000000000,50.0000000000,163.0000000000,249.0000000000,79.0000000000
1717675249054,581.0000000000,278.0000000000,56.0000000000,161.0000000000,248.0000000000,78.0000000000
1717675249054,575.0000000000,275.0000000000,56.0000000000,160.0000000000,246.0000000000,78.0000000000
1717675249054,569.0000000000,273.0000000000,56.0000000000,159.0000000000,243.0000000000,77.0000000000
1717675249054,563.0000000000,271.0000000000,56.0000000000,159.0000000000,243.0000000000,76.0000000000
1717675249055,558.0000000000,270.0000000000,55.0000000000,157.0000000000,241.0000000000,76.0000000000
1717675249055,551.0000000000,268.0000000000,55.0000000000,156.0000000000,240.0000000000,75.0000000000
1717675249055,547.0000000000,267.0000000000,55.0000000000,155.0000000000,238.0000000000,76.0000000000
1717675249055,542.0000000000,265.0000000000,54.0000000000,154.0000000000,236.0000000000,75.0000000000
1717675249056,536.0000000000,263.0000000000,54.0000000000,153.0000000000,235.0000000000,74.0000000000
1717675249056,531.0000000000,262.0000000000,54.0000000000,152.0000000000,233.0000000000,74.0000000000
1717675249070,527.0000000000,260.0000000000,52.0000000000,152.0000000000,231.0000000000,73.0000000000
1717675249071,521.0000000000,259.0000000000,52.0000000000,150.0000000000,230.0000000000,72.0000000000
1717675249072,517.0000000000,257.0000000000,52.0000000000,150.0000000000,228.0000000000,72.0000000000
1717675249072,512.0000000000,255.0000000000,51.0000000000,148.0000000000,227.0000000000,71.0000000000
1717675249072,508.0000000000,254.0000000000,51.0000000000,147.0000000000,225.0000000000,71.0000000000
1717675249072,504.0000000000,252.0000000000,51.0000000000,147.0000000000,224.0000000000,71.0000000000
1717675249072,499.0000000000,251.0000000000,51.0000000000,145.0000000000,223.0000000000,71.0000000000
1717675249073,495.0000000000,248.0000000000,51.0000000000,145.0000000000,222.0000000000,70.0000000000
1717675249094,489.0000000000,248.0000000000,50.0000000000,143.0000000000,220.0000000000,70.0000000000
1717675249094,486.0000000000,246.0000000000,50.0000000000,143.0000000000,219.0000000000,69.0000000000
1717675249095,481.0000000000,244.0000000000,49.0000000000,142.0000000000,217.0000000000,69.0000000000
1717675249095,478.0000000000,243.0000000000,49.0000000000,142.0000000000,216.0000000000,68.0000000000
1717675249095,473.0000000000,241.0000000000,49.0000000000,140.0000000000,215.0000000000,67.0000000000
1717675249095,470.0000000000,240.0000000000,48.0000000000,140.0000000000,214.0000000000,67.0000000000
1717675249095,465.0000000000,238.0000000000,48.0000000000,139.0000000000,212.0000000000,67.0000000000
1717675249095,462.0000000000,237.0000000000,48.0000000000,137.0000000000,211.0000000000,67.0000000000
1717675249096,457.0000000000,236.0000000000,48.0000000000,136.0000000000,209.0000000000,65.0000000000
1717675249096,454.0000000000,235.0000000000,47.0000000000,135.0000000000,207.0000000000,65.0000000000
1717675249096,451.0000000000,233.0000000000,47.0000000000,135.0000000000,207.0000000000,65.0000000000
1717675249096,447.0000000000,231.0000000000,46.0000000000,135.0000000000,206.0000000000,65.0000000000
1717675249096,444.0000000000,230.0000000000,46.0000000000,133.0000000000,204.0000000000,64.0000000000
1717675249112,440.0000000000,228.0000000000,46.0000000000,132.0000000000,204.0000000000,63.0000000000
1717675249113,436.0000000000,304.0000000000,45.0000000000,131.0000000000,203.0000000000,63.0000000000
1717675249113,433.0000000000,344.0000000000,45.0000000000,131.0000000000,201.0000000000,63.0000000000
1717675249113,472.0000000000,340.0000000000,45.0000000000,129.0000000000,199.0000000000,63.0000000000
1717675249113,508.0000000000,337.0000000000,45.0000000000,129.0000000000,199.0000000000,62.0000000000
1717675249113,503.0000000000,335.0000000000,44.0000000000,127.0000000000,198.0000000000,62.0000000000
1717675249113,497.0000000000,331.0000000000,44.0000000000,127.0000000000,196.0000000000,62.0000000000
1717675249114,492.0000000000,328.0000000000,44.0000000000,127.0000000000,195.0000000000,61.0000000000
1717675249126,615.0000000000,327.0000000000,44.0000000000,126.0000000000,193.0000000000,61.0000000000
1717675249127,782.0000000000,324.0000000000,44.0000000000,126.0000000000,192.0000000000,60.0000000000
1717675249127,770.0000000000,321.0000000000,43.0000000000,124.0000000000,192.0000000000,60.0000000000
1717675249127,759.0000000000,319.0000000000,43.0000000000,124.0000000000,191.0000000000,60.0000000000
1717675249127,748.0000000000,317.0000000000,43.0000000000,123.0000000000,189.0000000000,60.0000000000
1717675249127,739.0000000000,315.0000000000,43.0000000000,128.0000000000,188.0000000000,59.0000000000
1717675249128,729.0000000000,312.0000000000,41.0000000000,127.0000000000,187.0000000000,59.0000000000
1717675249128,720.0000000000,310.0000000000,41.0000000000,127.0000000000,187.0000000000,59.0000000000
1717675249141,711.0000000000,307.0000000000,41.0000000000,126.0000000000,185.0000000000,58.0000000000
1717675249141,704.0000000000,305.0000000000,41.0000000000,124.0000000000,184.0000000000,57.0000000000
1717675249142,696.0000000000,303.0000000000,41.0000000000,124.0000000000,183.0000000000,57.0000000000
1717675249142,688.0000000000,300.0000000000,39.0000000000,123.0000000000,182.0000000000,57.0000000000
1717675249142,679.0000000000,299.0000000000,40.0000000000,123.0000000000,180.0000000000,56.0000000000
1717675249142,671.0000000000,296.0000000000,39.0000000000,121.0000000000,179.0000000000,56.0000000000
1717675249142,664.0000000000,295.0000000000,39.0000000000,121.0000000000,178.0000000000,56.0000000000
1717675249157,657.0000000000,294.0000000000,39.0000000000,120.0000000000,177.0000000000,56.0000000000
1717675249158,651.0000000000,291.0000000000,39.0000000000,120.0000000000,176.0000000000,55.0000000000
1717675249159,643.0000000000,289.0000000000,39.0000000000,118.0000000000,176.0000000000,55.0000000000
1717675249159,636.0000000000,287.0000000000,39.0000000000,118.0000000000,174.0000000000,55.0000000000
1717675249159,630.0000000000,284.0000000000,39.0000000000,118.0000000000,174.0000000000,54.0000000000
1717675249159,624.0000000000,283.0000000000,38.0000000000,116.0000000000,172.0000000000,53.0000000000
1717675249160,616.0000000000,281.0000000000,38.0000000000,115.0000000000,171.0000000000,53.0000000000
1717675249160,611.0000000000,279.0000000000,38.0000000000,115.0000000000,171.0000000000,52.0000000000
1717675249161,604.0000000000,277.0000000000,38.0000000000,114.0000000000,169.0000000000,52.0000000000
1717675249161,599.0000000000,275.0000000000,38.0000000000,113.0000000000,167.0000000000,52.0000000000
1717675249191,593.0000000000,273.0000000000,37.0000000000,112.0000000000,167.0000000000,51.0000000000
1717675249192,587.0000000000,271.0000000000,37.0000000000,112.0000000000,167.0000000000,51.0000000000
1717675249192,581.0000000000,270.0000000000,37.0000000000,112.0000000000,166.0000000000,51.0000000000
1717675249192,575.0000000000,268.0000000000,36.0000000000,111.0000000000,164.0000000000,51.0000000000
1717675249193,569.0000000000,267.0000000000,36.0000000000,110.0000000000,163.0000000000,51.0000000000
1717675249193,564.0000000000,264.0000000000,36.0000000000,109.0000000000,162.0000000000,50.0000000000
1717675249193,560.0000000000,263.0000000000,35.0000000000,109.0000000000,162.0000000000,50.0000000000
1717675249193,555.0000000000,262.0000000000,36.0000000000,108.0000000000,160.0000000000,49.0000000000
1717675249193,549.0000000000,259.0000000000,35.0000000000,108.0000000000,159.0000000000,49.0000000000
1717675249193,543.0000000000,257.0000000000,35.0000000000,107.0000000000,159.0000000000,49.0000000000
1717675249194,540.0000000000,295.0000000000,35.0000000000,106.0000000000,158.0000000000,49.0000000000
1717675249194,535.0000000000,292.0000000000,35.0000000000,105.0000000000,157.0000000000,48.0000000000
1717675249194,529.0000000000,290.0000000000,35.0000000000,105.0000000000,156.0000000000,48.0000000000
1717675249194,525.0000000000,287.0000000000,35.0000000000,103.0000000000,156.0000000000,48.0000000000
1717675249194,681.0000000000,285.0000000000,35.0000000000,103.0000000000,155.0000000000,48.0000000000
1717675249195,673.0000000000,283.0000000000,34.0000000000,103.0000000000,153.0000000000,47.0000000000
1717675249195,664.0000000000,281.0000000000,34.0000000000,103.0000000000,153.0000000000,47.0000000000
1717675249213,656.0000000000,279.0000000000,34.0000000000,102.0000000000,152.0000000000,47.0000000000
1717675249214,649.0000000000,278.0000000000,33.0000000000,102.0000000000,152.0000000000,46.0000000000
1717675249214,641.0000000000,275.0000000000,33.0000000000,100.0000000000,151.0000000000,46.0000000000
1717675249214,635.0000000000,355.0000000000,33.0000000000,100.0000000000,150.0000000000,46.0000000000
1717675249214,627.0000000000,352.0000000000,33.0000000000,99.0000000000,149.0000000000,46.0000000000
1717675249214,620.0000000000,348.0000000000,33.0000000000,99.0000000000,148.0000000000,46.0000000000
1717675249215,614.0000000000,344.0000000000,32.0000000000,98.0000000000,148.0000000000,45.0000000000
1717675249215,608.0000000000,343.0000000000,32.0000000000,98.0000000000,147.0000000000,44.0000000000
1717675249215,601.0000000000,339.0000000000,31.0000000000,97.0000000000,147.0000000000,45.0000000000
1717675249215,596.0000000000,337.0000000000,31.0000000000,96.0000000000,145.0000000000,44.0000000000
1717675249215,590.0000000000,335.0000000000,31.0000000000,96.0000000000,144.0000000000,44.0000000000
1717675249232,584.0000000000,332.0000000000,31.0000000000,96.0000000000,143.0000000000,44.0000000000
1717675249235,579.0000000000,330.0000000000,31.0000000000,96.0000000000,143.0000000000,43.0000000000
1717675249235,574.0000000000,327.0000000000,31.0000000000,95.0000000000,143.0000000000,43.0000000000
1717675249235,568.0000000000,325.0000000000,31.0000000000,94.0000000000,142.0000000000,43.0000000000
1717675249235,563.0000000000,323.0000000000,31.0000000000,94.0000000000,141.0000000000,43.0000000000
1717675249235,558.0000000000,321.0000000000,31.0000000000,93.0000000000,140.0000000000,43.0000000000
1717675249235,551.0000000000,318.0000000000,30.0000000000,92.0000000000,140.0000000000,43.0000000000
1717675249235,547.0000000000,316.0000000000,31.0000000000,92.0000000000,139.0000000000,42.0000000000
1717675249236,542.0000000000,313.0000000000,30.0000000000,92.0000000000,139.0000000000,42.0000000000
1717675249236,537.0000000000,312.0000000000,30.0000000000,91.0000000000,137.0000000000,41.0000000000
1717675249253,532.0000000000,310.0000000000,30.0000000000,91.0000000000,137.0000000000,41.0000000000
1717675249254,527.0000000000,307.0000000000,30.0000000000,89.0000000000,240.0000000000,41.0000000000
1717675249254,524.0000000000,305.0000000000,30.0000000000,89.0000000000,273.0000000000,40.0000000000
1717675249254,519.0000000000,304.0000000000,30.0000000000,88.0000000000,271.0000000000,40.0000000000
1717675249255,515.0000000000,302.0000000000,29.0000000000,88.0000000000,269.0000000000,39.0000000000
1717675249255,511.0000000000,300.0000000000,29.0000000000,88.0000000000,267.0000000000,39.0000000000
1717675249255,505.0000000000,297.0000000000,29.0000000000,87.0000000000,264.0000000000,39.0000000000
1717675249255,502.0000000000,295.0000000000,29.0000000000,87.0000000000,263.0000000000,39.0000000000
1717675249255,497.0000000000,294.0000000000,28.0000000000,87.0000000000,260.0000000000,39.0000000000
1717675249255,494.0000000000,291.0000000000,28.0000000000,86.0000000000,259.0000000000,39.0000000000
1717675249256,490.0000000000,289.0000000000,28.0000000000,85.0000000000,257.0000000000,39.0000000000
1717675249274,487.0000000000,287.0000000000,28.0000000000,84.0000000000,255.0000000000,39.0000000000
1717675249275,482.0000000000,286.0000000000,28.0000000000,84.0000000000,254.0000000000,39.0000000000
1717675249275,479.0000000000,284.0000000000,28.0000000000,84.0000000000,252.0000000000,39.0000000000
1717675249275,475.0000000000,281.0000000000,28.0000000000,83.0000000000,251.0000000000,38.0000000000
1717675249275,472.0000000000,280.0000000000,28.0000000000,83.0000000000,248.0000000000,38.0000000000
1717675249275,467.0000000000,279.0000000000,33.0000000000,83.0000000000,248.0000000000,38.0000000000
1717675249275,463.0000000000,276.0000000000,33.0000000000,82.0000000000,246.0000000000,41.0000000000
1717675249275,460.0000000000,275.0000000000,32.0000000000,81.0000000000,244.0000000000,41.0000000000
1717675249276,456.0000000000,273.0000000000,32.0000000000,81.0000000000,242.0000000000,40.0000000000
1717675249276,454.0000000000,271.0000000000,32.0000000000,80.0000000000,241.0000000000,40.0000000000
1717675249276,450.0000000000,270.0000000000,31.0000000000,80.0000000000,239.0000000000,39.0000000000
1717675249339,447.0000000000,268.0000000000,31.0000000000,80.0000000000,238.0000000000,39.0000000000
1717675249340,444.0000000000,267.0000000000,31.0000000000,79.0000000000,236.0000000000,39.0000000000
1717675249341,440.0000000000,286.0000000000,67.0000000000,79.0000000000,235.0000000000,39.0000000000
1717675249341,438.0000000000,283.0000000000,96.0000000000,79.0000000000,233.0000000000,39.0000000000
1717675249341,433.0000000000,280.0000000000,96.0000000000,78.0000000000,231.0000000000,39.0000000000
1717675249342,430.0000000000,279.0000000000,95.0000000000,78.0000000000,231.0000000000,39.0000000000
1717675249342,427.0000000000,276.0000000000,94.0000000000,77.0000000000,228.0000000000,39.0000000000
1717675249342,423.0000000000,275.0000000000,93.0000000000,77.0000000000,227.0000000000,39.0000000000
1717675249343,421.0000000000,272.0000000000,93.0000000000,76.0000000000,226.0000000000,38.0000000000
1717675249343,418.0000000000,271.0000000000,92.0000000000,76.0000000000,224.0000000000,38.0000000000
1717675249343,415.0000000000,269.0000000000,92.0000000000,76.0000000000,223.0000000000,37.0000000000
1717675249344,412.0000000000,267.0000000000,91.0000000000,75.0000000000,222.0000000000,37.0000000000
1717675249344,409.0000000000,265.0000000000,91.0000000000,75.0000000000,220.0000000000,37.0000000000
1717675249344,407.0000000000,263.0000000000,89.0000000000,75.0000000000,220.0000000000,36.0000000000
1717675249344,403.0000000000,263.0000000000,89.0000000000,73.0000000000,217.0000000000,37.0000000000
1717675249344,401.0000000000,260.0000000000,88.0000000000,73.0000000000,216.0000000000,36.0000000000
1717675249345,398.0000000000,259.0000000000,88.0000000000,73.0000000000,216.0000000000,35.0000000000
1717675249345,395.0000000000,257.0000000000,88.0000000000,71.0000000000,214.0000000000,36.0000000000
1717675249345,391.0000000000,255.0000000000,88.0000000000,71.0000000000,212.0000000000,36.0000000000
1717675249345,390.0000000000,254.0000000000,86.0000000000,71.0000000000,211.0000000000,35.0000000000
1717675249345,387.0000000000,252.0000000000,86.0000000000,71.0000000000,210.0000000000,35.0000000000
1717675249345,384.0000000000,251.0000000000,85.0000000000,71.0000000000,209.0000000000,35.0000000000
1717675249346,382.0000000000,249.0000000000,84.0000000000,71.0000000000,207.0000000000,35.0000000000
1717675249346,380.0000000000,248.0000000000,83.0000000000,71.0000000000,207.0000000000,35.0000000000
1717675249346,376.0000000000,247.0000000000,83.0000000000,70.0000000000,206.0000000000,35.0000000000
1717675249346,375.0000000000,244.0000000000,83.0000000000,70.0000000000,204.0000000000,34.0000000000
1717675249346,372.0000000000,243.0000000000,83.0000000000,70.0000000000,203.0000000000,51.0000000000
1717675249347,369.0000000000,242.0000000000,82.0000000000,69.0000000000,201.0000000000,51.0000000000
1717675249347,367.0000000000,240.0000000000,81.0000000000,68.0000000000,199.0000000000,51.0000000000
1717675249347,364.0000000000,239.0000000000,81.0000000000,68.0000000000,199.0000000000,51.0000000000
1717675249347,362.0000000000,238.0000000000,81.0000000000,67.0000000000,198.0000000000,50.0000000000
1717675249347,359.0000000000,236.0000000000,80.0000000000,67.0000000000,197.0000000000,49.0000000000
1717675249348,358.0000000000,235.0000000000,79.0000000000,67.0000000000,195.0000000000,49.0000000000
1717675249348,355.0000000000,233.0000000000,79.0000000000,67.0000000000,195.0000000000,85.0000000000
1717675249348,353.0000000000,231.0000000000,79.0000000000,66.0000000000,193.0000000000,101.0000000000
1717675249348,351.0000000000,231.0000000000,78.0000000000,66.0000000000,192.0000000000,99.0000000000
1717675249348,348.0000000000,229.0000000000,78.0000000000,65.0000000000,192.0000000000,99.0000000000
1717675249349,346.0000000000,228.0000000000,78.0000000000,65.0000000000,190.0000000000,97.0000000000
1717675249349,344.0000000000,226.0000000000,76.0000000000,65.0000000000,190.0000000000,97.0000000000
1717675249349,342.0000000000,225.0000000000,76.0000000000,64.0000000000,188.0000000000,97.0000000000
1717675249380,339.0000000000,224.0000000000,76.0000000000,63.0000000000,188.0000000000,96.0000000000
1717675249382,337.0000000000,223.0000000000,76.0000000000,63.0000000000,185.0000000000,95.0000000000
1717675249384,361.0000000000,222.0000000000,75.0000000000,63.0000000000,184.0000000000,95.0000000000
1717675249384,358.0000000000,220.0000000000,75.0000000000,63.0000000000,184.0000000000,94.0000000000
1717675249385,435.0000000000,220.0000000000,74.0000000000,63.0000000000,183.0000000000,93.0000000000
1717675249402,622.0000000000,218.0000000000,73.0000000000,62.0000000000,182.0000000000,92.0000000000
1717675249402,611.0000000000,233.0000000000,73.0000000000,62.0000000000,180.0000000000,92.0000000000
1717675249402,604.0000000000,296.0000000000,72.0000000000,62.0000000000,179.0000000000,92.0000000000
1717675249403,597.0000000000,295.0000000000,71.0000000000,61.0000000000,178.0000000000,91.0000000000
1717675249403,591.0000000000,292.0000000000,71.0000000000,61.0000000000,177.0000000000,90.0000000000
1717675249404,585.0000000000,290.0000000000,71.0000000000,61.0000000000,176.0000000000,89.0000000000
1717675249404,579.0000000000,287.0000000000,71.0000000000,60.0000000000,176.0000000000,89.0000000000
1717675249404,573.0000000000,286.0000000000,71.0000000000,60.0000000000,175.0000000000,88.0000000000
1717675249404,568.0000000000,284.0000000000,70.0000000000,60.0000000000,174.0000000000,88.0000000000
1717675249405,561.0000000000,281.0000000000,70.0000000000,59.0000000000,173.0000000000,88.0000000000
1717675249405,557.0000000000,280.0000000000,70.0000000000,59.0000000000,172.0000000000,87.0000000000
1717675249405,551.0000000000,278.0000000000,69.0000000000,59.0000000000,171.0000000000,87.0000000000
1717675249406,546.0000000000,299.0000000000,68.0000000000,79.0000000000,169.0000000000,86.0000000000
1717675249406,540.0000000000,295.0000000000,68.0000000000,78.0000000000,169.0000000000,85.0000000000
1717675249406,536.0000000000,294.0000000000,68.0000000000,77.0000000000,167.0000000000,84.0000000000
1717675249406,531.0000000000,291.0000000000,67.0000000000,77.0000000000,167.0000000000,84.0000000000
1717675249406,526.0000000000,289.0000000000,67.0000000000,76.0000000000,166.0000000000,83.0000000000
1717675249407,521.0000000000,287.0000000000,67.0000000000,76.0000000000,165.0000000000,83.0000000000
1717675249407,516.0000000000,286.0000000000,67.0000000000,76.0000000000,163.0000000000,83.0000000000
1717675249407,512.0000000000,284.0000000000,66.0000000000,76.0000000000,163.0000000000,83.0000000000
1717675249408,508.0000000000,281.0000000000,65.0000000000,75.0000000000,163.0000000000,83.0000000000
1717675249408,504.0000000000,280.0000000000,65.0000000000,75.0000000000,161.0000000000,86.0000000000
1717675249408,499.0000000000,277.0000000000,65.0000000000,74.0000000000,160.0000000000,85.0000000000
1717675249409,495.0000000000,275.0000000000,64.0000000000,74.0000000000,159.0000000000,85.0000000000
1717675249409,491.0000000000,273.0000000000,63.0000000000,73.0000000000,159.0000000000,84.0000000000
1717675249455,487.0000000000,271.0000000000,63.0000000000,72.0000000000,158.0000000000,83.0000000000
1717675249458,483.0000000000,270.0000000000,63.0000000000,72.0000000000,162.0000000000,83.0000000000
1717675249459,479.0000000000,268.0000000000,63.0000000000,71.0000000000,161.0000000000,83.0000000000
1717675249460,475.0000000000,267.0000000000,62.0000000000,71.0000000000,160.0000000000,82.0000000000
1717675249460,471.0000000000,263.0000000000,62.0000000000,71.0000000000,159.0000000000,81.0000000000
1717675249461,467.0000000000,263.0000000000,62.0000000000,71.0000000000,158.0000000000,81.0000000000
1717675249462,463.0000000000,260.0000000000,61.0000000000,70.0000000000,157.0000000000,81.0000000000
1717675249463,460.0000000000,259.0000000000,61.0000000000,70.0000000000,156.0000000000,79.0000000000
1717675249464,455.0000000000,258.0000000000,60.0000000000,68.0000000000,156.0000000000,79.0000000000
1717675249464,452.0000000000,255.0000000000,60.0000000000,68.0000000000,155.0000000000,79.0000000000
1717675249465,449.0000000000,254.0000000000,60.0000000000,68.0000000000,153.0000000000,79.0000000000
1717675249465,445.0000000000,252.0000000000,60.0000000000,67.0000000000,152.0000000000,79.0000000000
1717675249465,543.0000000000,252.0000000000,60.0000000000,67.0000000000,152.0000000000,78.0000000000
1717675249466,603.0000000000,249.0000000000,59.0000000000,67.0000000000,152.0000000000,77.0000000000
1717675249466,595.0000000000,248.0000000000,59.0000000000,66.0000000000,150.0000000000,77.0000000000
1717675249467,590.0000000000,246.0000000000,58.0000000000,66.0000000000,150.0000000000,76.0000000000
1717675249467,583.0000000000,245.0000000000,58.0000000000,65.0000000000,148.0000000000,76.0000000000
1717675249467,577.0000000000,243.0000000000,57.0000000000,64.0000000000,147.0000000000,75.0000000000
1717675249468,572.0000000000,241.0000000000,57.0000000000,64.0000000000,147.0000000000,76.0000000000
1717675249468,566.0000000000,240.0000000000,57.0000000000,64.0000000000,147.0000000000,75.0000000000
1717675249468,560.0000000000,240.0000000000,56.0000000000,63.0000000000,145.0000000000,74.0000000000
1717675249468,555.0000000000,249.0000000000,56.0000000000,63.0000000000,144.0000000000,73.0000000000
1717675249469,550.0000000000,248.0000000000,56.0000000000,63.0000000000,143.0000000000,73.0000000000
1717675249469,749.0000000000,246.0000000000,56.0000000000,63.0000000000,143.0000000000,72.0000000000
1717675249469,771.0000000000,243.0000000000,56.0000000000,62.0000000000,143.0000000000,71.0000000000
1717675249470,760.0000000000,242.0000000000,55.0000000000,62.0000000000,142.0000000000,71.0000000000
1717675249470,750.0000000000,240.0000000000,55.0000000000,62.0000000000,140.0000000000,71.0000000000
1717675249470,741.0000000000,239.0000000000,55.0000000000,61.0000000000,140.0000000000,71.0000000000
1717675249471,732.0000000000,238.0000000000,54.0000000000,60.0000000000,140.0000000000,71.0000000000
1717675249471,723.0000000000,236.0000000000,54.0000000000,60.0000000000,139.0000000000,70.0000000000
1717675249471,715.0000000000,234.0000000000,54.0000000000,60.0000000000,137.0000000000,70.0000000000
1717675249471,707.0000000000,231.0000000000,54.0000000000,60.0000000000,137.0000000000,70.0000000000
1717675249471,699.0000000000,231.0000000000,53.0000000000,60.0000000000,135.0000000000,69.0000000000
1717675249472,691.0000000000,230.0000000000,52.0000000000,60.0000000000,135.0000000000,68.0000000000
1717675249472,684.0000000000,228.0000000000,51.0000000000,59.0000000000,135.0000000000,67.0000000000
1717675249501,675.0000000000,227.0000000000,51.0000000000,58.0000000000,135.0000000000,67.0000000000
1717675249502,669.0000000000,225.0000000000,51.0000000000,59.0000000000,134.0000000000,67.0000000000
1717675249502,662.0000000000,224.0000000000,51.0000000000,58.0000000000,134.0000000000,67.0000000000
1717675249503,655.0000000000,223.0000000000,51.0000000000,62.0000000000,132.0000000000,66.0000000000
1717675249503,648.0000000000,222.0000000000,51.0000000000,61.0000000000,131.0000000000,66.0000000000
1717675249503,641.0000000000,220.0000000000,50.0000000000,61.0000000000,131.0000000000,66.0000000000
1717675249503,635.0000000000,219.0000000000,50.0000000000,60.0000000000,131.0000000000,65.0000000000
1717675249504,628.0000000000,217.0000000000,49.0000000000,70.0000000000,130.0000000000,65.0000000000
1717675249504,623.0000000000,216.0000000000,50.0000000000,70.0000000000,129.0000000000,64.0000000000
1717675249504,615.0000000000,215.0000000000,49.0000000000,69.0000000000,127.0000000000,63.0000000000
1717675249505,611.0000000000,214.0000000000,49.0000000000,68.0000000000,127.0000000000,63.0000000000
1717675249505,604.0000000000,212.0000000000,49.0000000000,67.0000000000,127.0000000000,63.0000000000
1717675249505,599.0000000000,211.0000000000,48.0000000000,67.0000000000,127.0000000000,63.0000000000
1717675249505,593.0000000000,211.0000000000,48.0000000000,67.0000000000,126.0000000000,62.0000000000
1717675249506,588.0000000000,209.0000000000,48.0000000000,67.0000000000,153.0000000000,62.0000000000
1717675249506,583.0000000000,224.0000000000,48.0000000000,65.0000000000,204.0000000000,62.0000000000
1717675249506,576.0000000000,233.0000000000,47.0000000000,65.0000000000,201.0000000000,62.0000000000
1717675249506,572.0000000000,231.0000000000,47.0000000000,65.0000000000,199.0000000000,61.0000000000
1717675249531,566.0000000000,231.0000000000,46.0000000000,64.0000000000,199.0000000000,62.0000000000
1717675249533,561.0000000000,229.0000000000,47.0000000000,64.0000000000,198.0000000000,61.0000000000
1717675249533,556.0000000000,227.0000000000,46.0000000000,63.0000000000,196.0000000000,60.0000000000
1717675249533,551.0000000000,225.0000000000,46.0000000000,63.0000000000,194.0000000000,60.0000000000
1717675249534,546.0000000000,224.0000000000,46.0000000000,63.0000000000,193.0000000000,60.0000000000
1717675249534,542.0000000000,223.0000000000,45.0000000000,62.0000000000,192.0000000000,59.0000000000
1717675249534,536.0000000000,221.0000000000,46.0000000000,62.0000000000,191.0000000000,59.0000000000
1717675249534,532.0000000000,220.0000000000,45.0000000000,62.0000000000,190.0000000000,59.0000000000
1717675249535,527.0000000000,218.0000000000,44.0000000000,60.0000000000,188.0000000000,59.0000000000
1717675249535,524.0000000000,216.0000000000,44.0000000000,61.0000000000,187.0000000000,58.0000000000
1717675249535,519.0000000000,216.0000000000,44.0000000000,60.0000000000,185.0000000000,57.0000000000
1717675249535,515.0000000000,214.0000000000,44.0000000000,60.0000000000,184.0000000000,57.0000000000
1717675249536,510.0000000000,212.0000000000,44.0000000000,60.0000000000,184.0000000000,56.0000000000
1717675249536,505.0000000000,211.0000000000,44.0000000000,60.0000000000,183.0000000000,56.0000000000
1717675249536,502.0000000000,210.0000000000,44.0000000000,59.0000000000,182.0000000000,56.0000000000
1717675249583,497.0000000000,208.0000000000,43.0000000000,58.0000000000,180.0000000000,56.0000000000
1717675249584,494.0000000000,207.0000000000,43.0000000000,88.0000000000,179.0000000000,56.0000000000
1717675249585,489.0000000000,206.0000000000,42.0000000000,112.0000000000,178.0000000000,56.0000000000
1717675249585,486.0000000000,205.0000000000,69.0000000000,111.0000000000,177.0000000000,55.0000000000
1717675249585,482.0000000000,204.0000000000,69.0000000000,110.0000000000,176.0000000000,55.0000000000
1717675249585,478.0000000000,203.0000000000,68.0000000000,109.0000000000,174.0000000000,54.0000000000
1717675249586,473.0000000000,201.0000000000,67.0000000000,108.0000000000,174.0000000000,54.0000000000
1717675249586,470.0000000000,199.0000000000,67.0000000000,108.0000000000,172.0000000000,54.0000000000
1717675249586,466.0000000000,199.0000000000,67.0000000000,107.0000000000,172.0000000000,53.0000000000
1717675249586,463.0000000000,198.0000000000,67.0000000000,105.0000000000,170.0000000000,53.0000000000
1717675249587,459.0000000000,196.0000000000,66.0000000000,105.0000000000,168.0000000000,52.0000000000
1717675249587,455.0000000000,195.0000000000,65.0000000000,104.0000000000,190.0000000000,52.0000000000
1717675249587,451.0000000000,195.0000000000,65.0000000000,103.0000000000,195.0000000000,52.0000000000
1717675249588,448.0000000000,193.0000000000,64.0000000000,103.0000000000,193.0000000000,63.0000000000
1717675249588,444.0000000000,192.0000000000,63.0000000000,103.0000000000,192.0000000000,62.0000000000
1717675249588,440.0000000000,191.0000000000,63.0000000000,102.0000000000,190.0000000000,62.0000000000
1717675249588,438.0000000000,190.0000000000,63.0000000000,101.0000000000,189.0000000000,61.0000000000
1717675249588,434.0000000000,189.0000000000,63.0000000000,100.0000000000,188.0000000000,60.0000000000
1717675249588,431.0000000000,188.0000000000,63.0000000000,99.0000000000,186.0000000000,60.0000000000
1717675249589,428.0000000000,187.0000000000,62.0000000000,99.0000000000,185.0000000000,60.0000000000
1717675249589,423.0000000000,186.0000000000,61.0000000000,99.0000000000,184.0000000000,60.0000000000
1717675249589,421.0000000000,184.0000000000,61.0000000000,98.0000000000,183.0000000000,60.0000000000
1717675249589,419.0000000000,184.0000000000,61.0000000000,97.0000000000,182.0000000000,59.0000000000
1717675249590,415.0000000000,183.0000000000,60.0000000000,96.0000000000,180.0000000000,58.0000000000
1717675249590,412.0000000000,182.0000000000,60.0000000000,96.0000000000,179.0000000000,58.0000000000
1717675249590,410.0000000000,182.0000000000,60.0000000000,95.0000000000,178.0000000000,57.0000000000
1717675249590,407.0000000000,180.0000000000,60.0000000000,95.0000000000,177.0000000000,57.0000000000
1717675249590,403.0000000000,179.0000000000,60.0000000000,94.0000000000,176.0000000000,56.0000000000
1717675249591,400.0000000000,178.0000000000,60.0000000000,93.0000000000,175.0000000000,56.0000000000
1717675249591,398.0000000000,177.0000000000,59.0000000000,93.0000000000,174.0000000000,56.0000000000
1717675249623,396.0000000000,176.0000000000,59.0000000000,92.0000000000,172.0000000000,56.0000000000
1717675249625,391.0000000000,176.0000000000,59.0000000000,92.0000000000,172.0000000000,56.0000000000
1717675249626,539.0000000000,207.0000000000,59.0000000000,91.0000000000,171.0000000000,55.0000000000
1717675249627,605.0000000000,233.0000000000,58.0000000000,90.0000000000,169.0000000000,55.0000000000
1717675249627,598.0000000000,231.0000000000,57.0000000000,89.0000000000,167.0000000000,54.0000000000
1717675249628,591.0000000000,230.0000000000,57.0000000000,89.0000000000,167.0000000000,54.0000000000
1717675249629,585.0000000000,228.0000000000,57.0000000000,88.0000000000,167.0000000000,54.0000000000
1717675249630,579.0000000000,227.0000000000,56.0000000000,88.0000000000,166.0000000000,54.0000000000
1717675249631,573.0000000000,225.0000000000,56.0000000000,88.0000000000,164.0000000000,54.0000000000
1717675249632,568.0000000000,284.0000000000,56.0000000000,87.0000000000,163.0000000000,53.0000000000
1717675249633,561.0000000000,283.0000000000,56.0000000000,87.0000000000,163.0000000000,52.0000000000
1717675249634,556.0000000000,280.0000000000,55.0000000000,86.0000000000,161.0000000000,51.0000000000
1717675249635,551.0000000000,279.0000000000,55.0000000000,86.0000000000,161.0000000000,52.0000000000
1717675249636,545.0000000000,276.0000000000,54.0000000000,85.0000000000,159.0000000000,51.0000000000
1717675249637,540.0000000000,274.0000000000,54.0000000000,84.0000000000,159.0000000000,51.0000000000
1717675249638,536.0000000000,271.0000000000,54.0000000000,83.0000000000,202.0000000000,51.0000000000
1717675249640,531.0000000000,271.0000000000,54.0000000000,83.0000000000,307.0000000000,51.0000000000
1717675249641,526.0000000000,268.0000000000,60.0000000000,83.0000000000,303.0000000000,51.0000000000
1717675249642,521.0000000000,266.0000000000,60.0000000000,82.0000000000,300.0000000000,50.0000000000
1717675249642,516.0000000000,263.0000000000,59.0000000000,82.0000000000,297.0000000000,49.0000000000
1717675249643,512.0000000000,263.0000000000,59.0000000000,81.0000000000,295.0000000000,49.0000000000
1717675249644,507.0000000000,262.0000000000,58.0000000000,125.0000000000,294.0000000000,49.0000000000
1717675249644,503.0000000000,259.0000000000,57.0000000000,125.0000000000,291.0000000000,49.0000000000
1717675249644,498.0000000000,257.0000000000,57.0000000000,124.0000000000,289.0000000000,48.0000000000
1717675249645,494.0000000000,255.0000000000,57.0000000000,123.0000000000,287.0000000000,48.0000000000
1717675249646,489.0000000000,254.0000000000,56.0000000000,121.0000000000,284.0000000000,48.0000000000
1717675249649,485.0000000000,252.0000000000,56.0000000000,121.0000000000,283.0000000000,48.0000000000
1717675249649,481.0000000000,251.0000000000,56.0000000000,120.0000000000,280.0000000000,47.0000000000
1717675249650,476.0000000000,248.0000000000,56.0000000000,119.0000000000,279.0000000000,47.0000000000
1717675249651,472.0000000000,247.0000000000,55.0000000000,119.0000000000,276.0000000000,47.0000000000
1717675249652,468.0000000000,245.0000000000,54.0000000000,118.0000000000,275.0000000000,47.0000000000
1717675249653,464.0000000000,243.0000000000,55.0000000000,116.0000000000,272.0000000000,46.0000000000
1717675249687,460.0000000000,242.0000000000,54.0000000000,119.0000000000,271.0000000000,46.0000000000
1717675249688,456.0000000000,240.0000000000,54.0000000000,118.0000000000,269.0000000000,45.0000000000
1717675249688,452.0000000000,239.0000000000,53.0000000000,116.0000000000,267.0000000000,46.0000000000
1717675249688,449.0000000000,237.0000000000,52.0000000000,116.0000000000,265.0000000000,45.0000000000
1717675249688,446.0000000000,236.0000000000,52.0000000000,115.0000000000,263.0000000000,45.0000000000
1717675249689,441.0000000000,234.0000000000,51.0000000000,114.0000000000,262.0000000000,44.0000000000
1717675249689,439.0000000000,232.0000000000,52.0000000000,113.0000000000,260.0000000000,44.0000000000
1717675249689,435.0000000000,231.0000000000,51.0000000000,113.0000000000,258.0000000000,44.0000000000
1717675249689,431.0000000000,229.0000000000,51.0000000000,112.0000000000,255.0000000000,44.0000000000
1717675249690,428.0000000000,227.0000000000,51.0000000000,111.0000000000,255.0000000000,43.0000000000
1717675249690,423.0000000000,226.0000000000,50.0000000000,111.0000000000,253.0000000000,44.0000000000
1717675249690,421.0000000000,225.0000000000,50.0000000000,110.0000000000,252.0000000000,43.0000000000
1717675249691,624.0000000000,224.0000000000,50.0000000000,109.0000000000,250.0000000000,43.0000000000
1717675249691,787.0000000000,223.0000000000,49.0000000000,108.0000000000,248.0000000000,43.0000000000
1717675249691,775.0000000000,220.0000000000,49.0000000000,108.0000000000,247.0000000000,41.0000000000
1717675249692,764.0000000000,228.0000000000,49.0000000000,107.0000000000,245.0000000000,41.0000000000
1717675249692,754.0000000000,227.0000000000,48.0000000000,107.0000000000,243.0000000000,41.0000000000
1717675249692,743.0000000000,225.0000000000,48.0000000000,105.0000000000,242.0000000000,41.0000000000
1717675249692,735.0000000000,224.0000000000,48.0000000000,105.0000000000,240.0000000000,41.0000000000
1717675249728,726.0000000000,222.0000000000,48.0000000000,103.0000000000,239.0000000000,41.0000000000
1717675249731,717.0000000000,220.0000000000,48.0000000000,103.0000000000,237.0000000000,40.0000000000
1717675249732,708.0000000000,219.0000000000,47.0000000000,103.0000000000,236.0000000000,40.0000000000
1717675249732,700.0000000000,219.0000000000,47.0000000000,102.0000000000,235.0000000000,39.0000000000
1717675249732,692.0000000000,217.0000000000,46.0000000000,101.0000000000,233.0000000000,39.0000000000
1717675249733,684.0000000000,216.0000000000,46.0000000000,100.0000000000,231.0000000000,39.0000000000
1717675249733,676.0000000000,215.0000000000,46.0000000000,100.0000000000,230.0000000000,39.0000000000
1717675249733,669.0000000000,214.0000000000,46.0000000000,99.0000000000,228.0000000000,39.0000000000
1717675249734,663.0000000000,212.0000000000,45.0000000000,99.0000000000,227.0000000000,39.0000000000
1717675249734,655.0000000000,211.0000000000,45.0000000000,98.0000000000,226.0000000000,39.0000000000
1717675249734,647.0000000000,209.0000000000,45.0000000000,97.0000000000,224.0000000000,38.0000000000
1717675249734,641.0000000000,207.0000000000,44.0000000000,97.0000000000,223.0000000000,92.0000000000
1717675249734,636.0000000000,207.0000000000,44.0000000000,96.0000000000,223.0000000000,111.0000000000
1717675249734,628.0000000000,206.0000000000,44.0000000000,96.0000000000,221.0000000000,110.0000000000
1717675249735,622.0000000000,204.0000000000,44.0000000000,95.0000000000,220.0000000000,109.0000000000
1717675249735,615.0000000000,203.0000000000,43.0000000000,94.0000000000,217.0000000000,108.0000000000
1717675249735,610.0000000000,201.0000000000,43.0000000000,110.0000000000,216.0000000000,107.0000000000
1717675249735,604.0000000000,199.0000000000,43.0000000000,109.0000000000,216.0000000000,106.0000000000
1717675249735,596.0000000000,199.0000000000,43.0000000000,108.0000000000,214.0000000000,105.0000000000
1717675249736,591.0000000000,199.0000000000,42.0000000000,107.0000000000,212.0000000000,104.0000000000
1717675249736,584.0000000000,197.0000000000,43.0000000000,107.0000000000,211.0000000000,103.0000000000
1717675249736,579.0000000000,195.0000000000,41.0000000000,105.0000000000,209.0000000000,103.0000000000
1717675249737,573.0000000000,195.0000000000,41.0000000000,105.0000000000,208.0000000000,103.0000000000
1717675249764,568.0000000000,193.0000000000,41.0000000000,103.0000000000,207.0000000000,102.0000000000
1717675249767,562.0000000000,192.0000000000,40.0000000000,113.0000000000,206.0000000000,101.0000000000
