timestamp,Channel 1,Channel 2,Channel 3,Channel 4,Channel 5,Channel 6
1717675202397,8.0000000000,0.0000000000,4.0000000000,111.0000000000,55.0000000000,0.0000000000
1717675202398,8.0000000000,0.0000000000,4.0000000000,111.0000000000,55.0000000000,0.0000000000
1717675202398,7.0000000000,0.0000000000,5.0000000000,110.0000000000,56.0000000000,0.0000000000
1717675202398,7.0000000000,0.0000000000,4.0000000000,110.0000000000,55.0000000000,0.0000000000
1717675202398,7.0000000000,0.0000000000,5.0000000000,110.0000000000,55.0000000000,0.0000000000
1717675202399,8.0000000000,0.0000000000,4.0000000000,109.0000000000,54.0000000000,0.0000000000
1717675202399,8.0000000000,0.0000000000,4.0000000000,108.0000000000,54.0000000000,0.0000000000
1717675202399,9.0000000000,0.0000000000,5.0000000000,108.0000000000,54.0000000000,0.0000000000
1717675202399,9.0000000000,0.0000000000,4.0000000000,108.0000000000,54.0000000000,0.0000000000
1717675202399,9.0000000000,0.0000000000,5.0000000000,107.0000000000,53.0000000000,0.0000000000
1717675202399,9.0000000000,0.0000000000,5.0000000000,107.0000000000,53.0000000000,0.0000000000
1717675202399,7.0000000000,0.0000000000,4.0000000000,106.0000000000,53.0000000000,0.0000000000
1717675202399,7.0000000000,0.0000000000,4.0000000000,105.0000000000,52.0000000000,0.0000000000
1717675202399,8.0000000000,0.0000000000,4.0000000000,105.0000000000,52.0000000000,0.0000000000
1717675202399,7.0000000000,0.0000000000,4.0000000000,105.0000000000,52.0000000000,0.0000000000
1717675202400,7.0000000000,0.0000000000,4.0000000000,104.0000000000,52.0000000000,0.0000000000
1717675202400,7.0000000000,0.0000000000,4.0000000000,103.0000000000,51.0000000000,0.0000000000
1717675202400,7.0000000000,0.0000000000,4.0000000000,103.0000000000,51.0000000000,0.0000000000
1717675202418,7.0000000000,0.0000000000,4.0000000000,103.0000000000,51.0000000000,0.0000000000
1717675202419,7.0000000000,0.0000000000,4.0000000000,103.0000000000,51.0000000000,0.0000000000
1717675202419,7.0000000000,0.0000000000,4.0000000000,103.0000000000,51.0000000000,0.0000000000
1717675202419,7.0000000000,0.0000000000,4.0000000000,101.0000000000,51.0000000000,0.0000000000
1717675202419,7.0000000000,0.0000000000,4.0000000000,102.0000000000,50.0000000000,0.0000000000
1717675202419,7.0000000000,0.0000000000,3.0000000000,100.0000000000,51.0000000000,0.0000000000
1717675202419,7.0000000000,0.0000000000,3.0000000000,100.0000000000,50.0000000000,0.0000000000
1717675202420,7.0000000000,0.0000000000,4.0000000000,100.0000000000,49.0000000000,0.0000000000
1717675202420,7.0000000000,0.0000000000,4.0000000000,99.0000000000,50.0000000000,0.0000000000
1717675202420,7.0000000000,0.0000000000,3.0000000000,99.0000000000,49.0000000000,0.0000000000
1717675202420,7.0000000000,0.0000000000,3.0000000000,99.0000000000,49.0000000000,0.0000000000
1717675202420,7.0000000000,0.0000000000,3.0000000000,98.0000000000,49.0000000000,0.0000000000
1717675202420,7.0000000000,0.0000000000,3.0000000000,98.0000000000,49.0000000000,0.0000000000
1717675202420,7.0000000000,0.0000000000,4.0000000000,98.0000000000,48.0000000000,0.0000000000
1717675202420,7.0000000000,0.0000000000,3.0000000000,97.0000000000,48.0000000000,0.0000000000
1717675202436,7.0000000000,0.0000000000,4.0000000000,97.0000000000,48.0000000000,0.0000000000
1717675202437,7.0000000000,0.0000000000,3.0000000000,96.0000000000,48.0000000000,0.0000000000
1717675202437,7.0000000000,0.0000000000,4.0000000000,96.0000000000,48.0000000000,0.0000000000
1717675202437,8.0000000000,0.0000000000,3.0000000000,96.0000000000,48.0000000000,0.0000000000
1717675202437,7.0000000000,0.0000000000,4.0000000000,95.0000000000,48.0000000000,0.0000000000
1717675202437,7.0000000000,0.0000000000,3.0000000000,95.0000000000,47.0000000000,0.0000000000
1717675202437,7.0000000000,0.0000000000,3.0000000000,95.0000000000,48.0000000000,0.0000000000
1717675202437,7.0000000000,0.0000000000,3.0000000000,94.0000000000,47.0000000000,0.0000000000
1717675202437,7.0000000000,0.0000000000,3.0000000000,94.0000000000,47.0000000000,0.0000000000
1717675202438,7.0000000000,0.0000000000,3.0000000000,94.0000000000,47.0000000000,0.0000000000
1717675202438,7.0000000000,0.0000000000,3.0000000000,93.0000000000,47.0000000000,0.0000000000
1717675202438,7.0000000000,0.0000000000,3.0000000000,92.0000000000,61.0000000000,0.0000000000
1717675202438,7.0000000000,0.0000000000,3.0000000000,92.0000000000,61.0000000000,0.0000000000
1717675202461,7.0000000000,0.0000000000,3.0000000000,92.0000000000,60.0000000000,0.0000000000
1717675202462,7.0000000000,0.0000000000,3.0000000000,92.0000000000,60.0000000000,0.0000000000
1717675202462,7.0000000000,0.0000000000,3.0000000000,92.0000000000,60.0000000000,0.0000000000
1717675202462,7.0000000000,0.0000000000,3.0000000000,91.0000000000,60.0000000000,0.0000000000
1717675202462,10.0000000000,0.0000000000,3.0000000000,90.0000000000,60.0000000000,0.0000000000
1717675202462,24.0000000000,0.0000000000,3.0000000000,89.0000000000,59.0000000000,0.0000000000
1717675202462,24.0000000000,0.0000000000,3.0000000000,89.0000000000,59.0000000000,0.0000000000
1717675202462,23.0000000000,0.0000000000,3.0000000000,89.0000000000,58.0000000000,0.0000000000
1717675202462,24.0000000000,0.0000000000,3.0000000000,89.0000000000,59.0000000000,0.0000000000
1717675202462,23.0000000000,0.0000000000,3.0000000000,88.0000000000,58.0000000000,0.0000000000
1717675202463,23.0000000000,0.0000000000,3.0000000000,88.0000000000,57.0000000000,0.0000000000
1717675202463,23.0000000000,0.0000000000,3.0000000000,88.0000000000,57.0000000000,0.0000000000
1717675202463,23.0000000000,0.0000000000,3.0000000000,88.0000000000,56.0000000000,0.0000000000
1717675202463,22.0000000000,0.0000000000,3.0000000000,88.0000000000,56.0000000000,0.0000000000
1717675202463,22.0000000000,0.0000000000,3.0000000000,87.0000000000,56.0000000000,0.0000000000
1717675202463,22.0000000000,0.0000000000,3.0000000000,86.0000000000,56.0000000000,0.0000000000
1717675202463,22.0000000000,0.0000000000,3.0000000000,86.0000000000,56.0000000000,0.0000000000
1717675202463,22.0000000000,0.0000000000,3.0000000000,86.0000000000,56.0000000000,0.0000000000
1717675202479,22.0000000000,0.0000000000,3.0000000000,86.0000000000,56.0000000000,0.0000000000
1717675202479,22.0000000000,0.0000000000,3.0000000000,85.0000000000,55.0000000000,0.0000000000
1717675202480,22.0000000000,0.0000000000,3.0000000000,84.0000000000,55.0000000000,0.0000000000
1717675202480,22.0000000000,0.0000000000,3.0000000000,84.0000000000,55.0000000000,0.0000000000
1717675202480,22.0000000000,0.0000000000,3.0000000000,84.0000000000,54.0000000000,0.0000000000
1717675202480,21.0000000000,0.0000000000,3.0000000000,83.0000000000,54.0000000000,0.0000000000
1717675202480,21.0000000000,0.0000000000,3.0000000000,83.0000000000,54.0000000000,0.0000000000
1717675202480,21.0000000000,0.0000000000,3.0000000000,83.0000000000,54.0000000000,0.0000000000
1717675202481,21.0000000000,0.0000000000,3.0000000000,83.0000000000,54.0000000000,0.0000000000
1717675202481,21.0000000000,0.0000000000,3.0000000000,82.0000000000,53.0000000000,0.0000000000
1717675202481,20.0000000000,0.0000000000,4.0000000000,82.0000000000,52.0000000000,0.0000000000
1717675202481,20.0000000000,0.0000000000,4.0000000000,81.0000000000,52.0000000000,0.0000000000
1717675202481,20.0000000000,0.0000000000,3.0000000000,81.0000000000,52.0000000000,0.0000000000
1717675202482,20.0000000000,0.0000000000,3.0000000000,81.0000000000,52.0000000000,0.0000000000
1717675202482,20.0000000000,0.0000000000,3.0000000000,81.0000000000,51.0000000000,0.0000000000
1717675202499,20.0000000000,0.0000000000,3.0000000000,80.0000000000,51.0000000000,0.0000000000
1717675202500,20.0000000000,0.0000000000,4.0000000000,80.0000000000,51.0000000000,0.0000000000
1717675202500,20.0000000000,0.0000000000,3.0000000000,79.0000000000,51.0000000000,0.0000000000
1717675202500,19.0000000000,0.0000000000,3.0000000000,79.0000000000,51.0000000000,0.0000000000
1717675202501,20.0000000000,0.0000000000,3.0000000000,79.0000000000,51.0000000000,0.0000000000
1717675202501,19.0000000000,0.0000000000,3.0000000000,79.0000000000,51.0000000000,0.0000000000
1717675202501,19.0000000000,0.0000000000,3.0000000000,78.0000000000,50.0000000000,0.0000000000
1717675202501,19.0000000000,0.0000000000,3.0000000000,78.0000000000,50.0000000000,0.0000000000
1717675202501,19.0000000000,0.0000000000,3.0000000000,78.0000000000,50.0000000000,0.0000000000
1717675202501,19.0000000000,0.0000000000,3.0000000000,78.0000000000,49.0000000000,0.0000000000
1717675202501,19.0000000000,0.0000000000,3.0000000000,78.0000000000,49.0000000000,0.0000000000
1717675202501,19.0000000000,0.0000000000,3.0000000000,77.0000000000,49.0000000000,0.0000000000
1717675202502,19.0000000000,0.0000000000,3.0000000000,76.0000000000,49.0000000000,0.0000000000
1717675202502,19.0000000000,0.0000000000,3.0000000000,76.0000000000,49.0000000000,0.0000000000
1717675202502,19.0000000000,0.0000000000,3.0000000000,76.0000000000,48.0000000000,0.0000000000
1717675202515,19.0000000000,0.0000000000,3.0000000000,76.0000000000,48.0000000000,0.0000000000
1717675202516,27.0000000000,0.0000000000,3.0000000000,76.0000000000,48.0000000000,0.0000000000
1717675202516,27.0000000000,0.0000000000,3.0000000000,75.0000000000,48.0000000000,0.0000000000
1717675202516,27.0000000000,0.0000000000,3.0000000000,75.0000000000,48.0000000000,0.0000000000
1717675202516,27.0000000000,0.0000000000,3.0000000000,75.0000000000,48.0000000000,0.0000000000
1717675202516,27.0000000000,0.0000000000,3.0000000000,73.0000000000,47.0000000000,0.0000000000
1717675202516,27.0000000000,0.0000000000,3.0000000000,74.0000000000,47.0000000000,0.0000000000
1717675202516,26.0000000000,0.0000000000,3.0000000000,73.0000000000,47.0000000000,0.0000000000
1717675202517,26.0000000000,0.0000000000,3.0000000000,73.0000000000,47.0000000000,0.0000000000
1717675202517,25.0000000000,0.0000000000,3.0000000000,73.0000000000,47.0000000000,0.0000000000
1717675202517,25.0000000000,0.0000000000,3.0000000000,73.0000000000,46.0000000000,0.0000000000
1717675202517,25.0000000000,0.0000000000,3.0000000000,71.0000000000,46.0000000000,0.0000000000
1717675202534,25.0000000000,0.0000000000,3.0000000000,71.0000000000,46.0000000000,0.0000000000
1717675202535,25.0000000000,0.0000000000,3.0000000000,71.0000000000,46.0000000000,0.0000000000
1717675202535,25.0000000000,0.0000000000,3.0000000000,71.0000000000,45.0000000000,0.0000000000
1717675202535,25.0000000000,0.0000000000,3.0000000000,71.0000000000,45.0000000000,0.0000000000
1717675202535,24.0000000000,0.0000000000,3.0000000000,71.0000000000,45.0000000000,0.0000000000
1717675202535,25.0000000000,0.0000000000,3.0000000000,71.0000000000,44.0000000000,0.0000000000
1717675202535,24.0000000000,0.0000000000,3.0000000000,71.0000000000,44.0000000000,0.0000000000
1717675202535,24.0000000000,0.0000000000,3.0000000000,71.0000000000,44.0000000000,0.0000000000
1717675202535,24.0000000000,0.0000000000,3.0000000000,70.0000000000,44.0000000000,0.0000000000
1717675202535,24.0000000000,0.0000000000,3.0000000000,70.0000000000,44.0000000000,0.0000000000
1717675202535,24.0000000000,0.0000000000,3.0000000000,70.0000000000,44.0000000000,0.0000000000
1717675202535,24.0000000000,0.0000000000,3.0000000000,69.0000000000,43.0000000000,0.0000000000
1717675202549,24.0000000000,0.0000000000,3.0000000000,68.0000000000,44.0000000000,0.0000000000
1717675202550,24.0000000000,0.0000000000,3.0000000000,68.0000000000,44.0000000000,0.0000000000
1717675202550,24.0000000000,0.0000000000,3.0000000000,68.0000000000,43.0000000000,0.0000000000
1717675202550,24.0000000000,0.0000000000,3.0000000000,68.0000000000,43.0000000000,0.0000000000
1717675202550,24.0000000000,0.0000000000,3.0000000000,67.0000000000,43.0000000000,0.0000000000
1717675202550,24.0000000000,0.0000000000,3.0000000000,67.0000000000,43.0000000000,0.0000000000
1717675202550,24.0000000000,0.0000000000,3.0000000000,67.0000000000,43.0000000000,0.0000000000
1717675202550,23.0000000000,0.0000000000,3.0000000000,67.0000000000,43.0000000000,0.0000000000
1717675202550,24.0000000000,0.0000000000,3.0000000000,67.0000000000,42.0000000000,0.0000000000
1717675202550,23.0000000000,0.0000000000,3.0000000000,67.0000000000,42.0000000000,0.0000000000
1717675202550,23.0000000000,0.0000000000,3.0000000000,66.0000000000,42.0000000000,0.0000000000
1717675202551,23.0000000000,0.0000000000,3.0000000000,65.0000000000,41.0000000000,0.0000000000
1717675202551,23.0000000000,0.0000000000,2.0000000000,65.0000000000,41.0000000000,0.0000000000
1717675202569,23.0000000000,0.0000000000,3.0000000000,65.0000000000,41.0000000000,0.0000000000
1717675202569,22.0000000000,0.0000000000,3.0000000000,65.0000000000,40.0000000000,0.0000000000
1717675202570,22.0000000000,0.0000000000,3.0000000000,64.0000000000,41.0000000000,0.0000000000
1717675202570,22.0000000000,0.0000000000,4.0000000000,65.0000000000,40.0000000000,0.0000000000
1717675202570,22.0000000000,0.0000000000,3.0000000000,64.0000000000,40.0000000000,0.0000000000
1717675202570,22.0000000000,0.0000000000,4.0000000000,64.0000000000,40.0000000000,0.0000000000
1717675202570,22.0000000000,0.0000000000,3.0000000000,63.0000000000,39.0000000000,0.0000000000
1717675202570,22.0000000000,0.0000000000,3.0000000000,63.0000000000,39.0000000000,0.0000000000
1717675202570,22.0000000000,0.0000000000,3.0000000000,63.0000000000,39.0000000000,0.0000000000
1717675202570,22.0000000000,0.0000000000,3.0000000000,63.0000000000,39.0000000000,0.0000000000
1717675202570,22.0000000000,0.0000000000,3.0000000000,63.0000000000,39.0000000000,0.0000000000
1717675202570,22.0000000000,0.0000000000,3.0000000000,63.0000000000,39.0000000000,0.0000000000
1717675202571,21.0000000000,0.0000000000,3.0000000000,63.0000000000,39.0000000000,0.0000000000
1717675202571,21.0000000000,0.0000000000,3.0000000000,62.0000000000,39.0000000000,0.0000000000
1717675202571,21.0000000000,0.0000000000,3.0000000000,62.0000000000,39.0000000000,0.0000000000
1717675202597,20.0000000000,0.0000000000,3.0000000000,62.0000000000,39.0000000000,0.0000000000
1717675202598,21.0000000000,0.0000000000,3.0000000000,62.0000000000,39.0000000000,0.0000000000
1717675202599,20.0000000000,0.0000000000,3.0000000000,62.0000000000,38.0000000000,0.0000000000
1717675202599,20.0000000000,0.0000000000,3.0000000000,61.0000000000,39.0000000000,0.0000000000
1717675202599,20.0000000000,0.0000000000,3.0000000000,61.0000000000,38.0000000000,0.0000000000
1717675202600,20.0000000000,0.0000000000,3.0000000000,60.0000000000,38.0000000000,0.0000000000
1717675202600,20.0000000000,0.0000000000,4.0000000000,60.0000000000,38.0000000000,0.0000000000
1717675202600,19.0000000000,0.0000000000,3.0000000000,60.0000000000,38.0000000000,0.0000000000
1717675202601,20.0000000000,0.0000000000,3.0000000000,60.0000000000,37.0000000000,0.0000000000
1717675202601,19.0000000000,0.0000000000,3.0000000000,60.0000000000,38.0000000000,0.0000000000
1717675202601,20.0000000000,0.0000000000,3.0000000000,59.0000000000,38.0000000000,0.0000000000
1717675202601,19.0000000000,0.0000000000,3.0000000000,76.0000000000,36.0000000000,0.0000000000
1717675202602,20.0000000000,0.0000000000,3.0000000000,88.0000000000,37.0000000000,0.0000000000
1717675202602,20.0000000000,0.0000000000,3.0000000000,87.0000000000,36.0000000000,0.0000000000
1717675202602,19.0000000000,0.0000000000,3.0000000000,87.0000000000,36.0000000000,0.0000000000
1717675202603,19.0000000000,0.0000000000,3.0000000000,86.0000000000,36.0000000000,0.0000000000
1717675202603,19.0000000000,0.0000000000,3.0000000000,86.0000000000,36.0000000000,0.0000000000
1717675202603,19.0000000000,0.0000000000,3.0000000000,85.0000000000,36.0000000000,0.0000000000
1717675202604,19.0000000000,0.0000000000,3.0000000000,84.0000000000,36.0000000000,0.0000000000
1717675202604,19.0000000000,0.0000000000,4.0000000000,84.0000000000,35.0000000000,0.0000000000
1717675202604,19.0000000000,0.0000000000,4.0000000000,83.0000000000,35.0000000000,0.0000000000
1717675202604,19.0000000000,0.0000000000,3.0000000000,83.0000000000,35.0000000000,0.0000000000
1717675202605,19.0000000000,0.0000000000,3.0000000000,83.0000000000,35.0000000000,0.0000000000
1717675202605,18.0000000000,0.0000000000,3.0000000000,82.0000000000,35.0000000000,0.0000000000
1717675202636,19.0000000000,0.0000000000,4.0000000000,82.0000000000,35.0000000000,0.0000000000
1717675202637,19.0000000000,0.0000000000,3.0000000000,81.0000000000,35.0000000000,0.0000000000
1717675202637,19.0000000000,0.0000000000,3.0000000000,81.0000000000,35.0000000000,0.0000000000
1717675202637,18.0000000000,0.0000000000,3.0000000000,81.0000000000,35.0000000000,0.0000000000
1717675202637,18.0000000000,0.0000000000,3.0000000000,80.0000000000,35.0000000000,0.0000000000
1717675202637,18.0000000000,0.0000000000,3.0000000000,79.0000000000,34.0000000000,0.0000000000
1717675202637,18.0000000000,0.0000000000,3.0000000000,79.0000000000,34.0000000000,0.0000000000
1717675202637,18.0000000000,0.0000000000,3.0000000000,79.0000000000,34.0000000000,0.0000000000
1717675202637,18.0000000000,0.0000000000,3.0000000000,79.0000000000,34.0000000000,0.0000000000
1717675202638,17.0000000000,0.0000000000,3.0000000000,79.0000000000,34.0000000000,0.0000000000
1717675202638,18.0000000000,0.0000000000,3.0000000000,78.0000000000,33.0000000000,0.0000000000
1717675202638,17.0000000000,0.0000000000,3.0000000000,78.0000000000,33.0000000000,0.0000000000
1717675202638,18.0000000000,0.0000000000,3.0000000000,77.0000000000,33.0000000000,4.0000000000
1717675202638,17.0000000000,0.0000000000,3.0000000000,77.0000000000,33.0000000000,6.0000000000
1717675202638,17.0000000000,0.0000000000,3.0000000000,77.0000000000,33.0000000000,6.0000000000
1717675202638,17.0000000000,0.0000000000,3.0000000000,76.0000000000,33.0000000000,6.0000000000
1717675202638,17.0000000000,0.0000000000,3.0000000000,76.0000000000,33.0000000000,6.0000000000
1717675202638,17.0000000000,0.0000000000,3.0000000000,76.0000000000,76.0000000000,5.0000000000
1717675202638,17.0000000000,0.0000000000,3.0000000000,76.0000000000,75.0000000000,6.0000000000
1717675202638,17.0000000000,0.0000000000,3.0000000000,75.0000000000,73.0000000000,6.0000000000
1717675202639,16.0000000000,0.0000000000,3.0000000000,75.0000000000,73.0000000000,6.0000000000
1717675202639,17.0000000000,0.0000000000,3.0000000000,74.0000000000,73.0000000000,6.0000000000
1717675202639,17.0000000000,0.0000000000,3.0000000000,73.0000000000,71.0000000000,5.0000000000
1717675202639,16.0000000000,0.0000000000,3.0000000000,73.0000000000,71.0000000000,6.0000000000
1717675202661,16.0000000000,0.0000000000,3.0000000000,72.0000000000,71.0000000000,5.0000000000
1717675202662,17.0000000000,0.0000000000,3.0000000000,73.0000000000,71.0000000000,5.0000000000
1717675202662,16.0000000000,0.0000000000,3.0000000000,71.0000000000,71.0000000000,5.0000000000
1717675202662,16.0000000000,0.0000000000,3.0000000000,71.0000000000,70.0000000000,5.0000000000
1717675202662,16.0000000000,0.0000000000,3.0000000000,71.0000000000,71.0000000000,6.0000000000
1717675202662,16.0000000000,0.0000000000,3.0000000000,71.0000000000,70.0000000000,6.0000000000
1717675202662,16.0000000000,0.0000000000,3.0000000000,71.0000000000,70.0000000000,5.0000000000
1717675202662,16.0000000000,0.0000000000,3.0000000000,71.0000000000,70.0000000000,6.0000000000
1717675202662,16.0000000000,0.0000000000,3.0000000000,71.0000000000,68.0000000000,5.0000000000
1717675202662,15.0000000000,0.0000000000,3.0000000000,70.0000000000,69.0000000000,5.0000000000
1717675202663,15.0000000000,0.0000000000,2.0000000000,70.0000000000,68.0000000000,5.0000000000
1717675202663,15.0000000000,0.0000000000,3.0000000000,70.0000000000,68.0000000000,5.0000000000
1717675202663,15.0000000000,0.0000000000,3.0000000000,69.0000000000,67.0000000000,4.0000000000
1717675202663,15.0000000000,0.0000000000,3.0000000000,69.0000000000,67.0000000000,4.0000000000
1717675202663,15.0000000000,0.0000000000,3.0000000000,69.0000000000,67.0000000000,4.0000000000
1717675202663,15.0000000000,0.0000000000,3.0000000000,68.0000000000,67.0000000000,5.0000000000
1717675202663,15.0000000000,0.0000000000,3.0000000000,67.0000000000,66.0000000000,4.0000000000
1717675202663,15.0000000000,0.0000000000,3.0000000000,67.0000000000,66.0000000000,4.0000000000
1717675202680,15.0000000000,0.0000000000,3.0000000000,67.0000000000,65.0000000000,4.0000000000
1717675202682,15.0000000000,0.0000000000,3.0000000000,67.0000000000,66.0000000000,4.0000000000
1717675202682,15.0000000000,0.0000000000,3.0000000000,67.0000000000,65.0000000000,5.0000000000
1717675202682,15.0000000000,0.0000000000,3.0000000000,67.0000000000,65.0000000000,4.0000000000
1717675202682,15.0000000000,0.0000000000,3.0000000000,66.0000000000,65.0000000000,4.0000000000
1717675202683,15.0000000000,0.0000000000,3.0000000000,66.0000000000,63.0000000000,3.0000000000
1717675202683,15.0000000000,0.0000000000,3.0000000000,66.0000000000,63.0000000000,4.0000000000
1717675202683,15.0000000000,0.0000000000,3.0000000000,65.0000000000,63.0000000000,4.0000000000
1717675202683,15.0000000000,0.0000000000,3.0000000000,65.0000000000,63.0000000000,4.0000000000
1717675202683,15.0000000000,0.0000000000,6.0000000000,64.0000000000,63.0000000000,3.0000000000
1717675202684,14.0000000000,0.0000000000,6.0000000000,63.0000000000,63.0000000000,4.0000000000
1717675202684,15.0000000000,0.0000000000,6.0000000000,64.0000000000,63.0000000000,4.0000000000
1717675202684,14.0000000000,0.0000000000,6.0000000000,63.0000000000,63.0000000000,4.0000000000
1717675202685,14.0000000000,0.0000000000,6.0000000000,63.0000000000,62.0000000000,4.0000000000
1717675202685,14.0000000000,0.0000000000,6.0000000000,63.0000000000,62.0000000000,4.0000000000
1717675202685,14.0000000000,0.0000000000,6.0000000000,63.0000000000,62.0000000000,4.0000000000
1717675202686,17.0000000000,0.0000000000,6.0000000000,63.0000000000,62.0000000000,4.0000000000
1717675202686,17.0000000000,0.0000000000,6.0000000000,62.0000000000,60.0000000000,4.0000000000
1717675202711,17.0000000000,0.0000000000,6.0000000000,62.0000000000,61.0000000000,4.0000000000
1717675202712,17.0000000000,0.0000000000,5.0000000000,61.0000000000,61.0000000000,3.0000000000
1717675202712,17.0000000000,0.0000000000,6.0000000000,62.0000000000,60.0000000000,4.0000000000
1717675202712,17.0000000000,0.0000000000,6.0000000000,62.0000000000,60.0000000000,4.0000000000
1717675202712,17.0000000000,0.0000000000,6.0000000000,61.0000000000,60.0000000000,4.0000000000
1717675202712,16.0000000000,0.0000000000,15.0000000000,60.0000000000,59.0000000000,3.0000000000
1717675202712,16.0000000000,0.0000000000,14.0000000000,60.0000000000,59.0000000000,4.0000000000
1717675202712,15.0000000000,0.0000000000,15.0000000000,60.0000000000,59.0000000000,4.0000000000
1717675202713,16.0000000000,0.0000000000,14.0000000000,60.0000000000,59.0000000000,4.0000000000
1717675202713,16.0000000000,0.0000000000,14.0000000000,59.0000000000,57.0000000000,3.0000000000
1717675202713,15.0000000000,0.0000000000,14.0000000000,60.0000000000,58.0000000000,3.0000000000
1717675202713,15.0000000000,0.0000000000,14.0000000000,59.0000000000,57.0000000000,3.0000000000
1717675202713,15.0000000000,0.0000000000,14.0000000000,59.0000000000,57.0000000000,3.0000000000
1717675202713,15.0000000000,0.0000000000,14.0000000000,59.0000000000,57.0000000000,3.0000000000
1717675202714,15.0000000000,0.0000000000,13.0000000000,58.0000000000,57.0000000000,3.0000000000
1717675202714,15.0000000000,0.0000000000,14.0000000000,58.0000000000,56.0000000000,3.0000000000
1717675202714,15.0000000000,0.0000000000,14.0000000000,57.0000000000,56.0000000000,3.0000000000
1717675202714,15.0000000000,0.0000000000,14.0000000000,57.0000000000,56.0000000000,3.0000000000
1717675202714,15.0000000000,0.0000000000,13.0000000000,57.0000000000,65.0000000000,3.0000000000
1717675202714,15.0000000000,0.0000000000,14.0000000000,57.0000000000,67.0000000000,3.0000000000
1717675202730,15.0000000000,0.0000000000,12.0000000000,56.0000000000,67.0000000000,3.0000000000
1717675202730,15.0000000000,0.0000000000,13.0000000000,56.0000000000,65.0000000000,3.0000000000
1717675202731,15.0000000000,0.0000000000,13.0000000000,60.0000000000,66.0000000000,3.0000000000
1717675202731,15.0000000000,0.0000000000,13.0000000000,60.0000000000,65.0000000000,3.0000000000
1717675202731,15.0000000000,0.0000000000,12.0000000000,60.0000000000,65.0000000000,3.0000000000
1717675202731,15.0000000000,0.0000000000,13.0000000000,60.0000000000,64.0000000000,3.0000000000
1717675202731,15.0000000000,0.0000000000,13.0000000000,60.0000000000,64.0000000000,3.0000000000
1717675202731,14.0000000000,0.0000000000,12.0000000000,59.0000000000,64.0000000000,3.0000000000
1717675202731,14.0000000000,0.0000000000,12.0000000000,59.0000000000,63.0000000000,3.0000000000
1717675202731,14.0000000000,0.0000000000,12.0000000000,58.0000000000,63.0000000000,3.0000000000
1717675202731,14.0000000000,0.0000000000,12.0000000000,58.0000000000,63.0000000000,3.0000000000
1717675202748,14.0000000000,0.0000000000,12.0000000000,57.0000000000,62.0000000000,3.0000000000
1717675202749,14.0000000000,0.0000000000,12.0000000000,57.0000000000,63.0000000000,3.0000000000
1717675202749,14.0000000000,0.0000000000,12.0000000000,57.0000000000,62.0000000000,3.0000000000
1717675202749,14.0000000000,0.0000000000,12.0000000000,56.0000000000,62.0000000000,3.0000000000
1717675202749,14.0000000000,0.0000000000,12.0000000000,56.0000000000,62.0000000000,3.0000000000
1717675202749,14.0000000000,0.0000000000,12.0000000000,56.0000000000,61.0000000000,3.0000000000
1717675202749,14.0000000000,0.0000000000,12.0000000000,56.0000000000,61.0000000000,3.0000000000
1717675202749,14.0000000000,0.0000000000,12.0000000000,56.0000000000,61.0000000000,3.0000000000
1717675202750,14.0000000000,0.0000000000,12.0000000000,56.0000000000,60.0000000000,2.0000000000
1717675202750,14.0000000000,0.0000000000,12.0000000000,56.0000000000,60.0000000000,3.0000000000
1717675202750,13.0000000000,0.0000000000,11.0000000000,55.0000000000,60.0000000000,2.0000000000
1717675202750,14.0000000000,0.0000000000,12.0000000000,55.0000000000,59.0000000000,2.0000000000
1717675202765,14.0000000000,0.0000000000,12.0000000000,55.0000000000,59.0000000000,3.0000000000
1717675202765,14.0000000000,0.0000000000,11.0000000000,55.0000000000,59.0000000000,3.0000000000
1717675202765,14.0000000000,0.0000000000,11.0000000000,54.0000000000,59.0000000000,2.0000000000
1717675202765,14.0000000000,0.0000000000,12.0000000000,54.0000000000,57.0000000000,3.0000000000
1717675202765,14.0000000000,0.0000000000,11.0000000000,54.0000000000,57.0000000000,3.0000000000
1717675202766,13.0000000000,0.0000000000,11.0000000000,54.0000000000,57.0000000000,3.0000000000
1717675202766,13.0000000000,0.0000000000,12.0000000000,53.0000000000,57.0000000000,3.0000000000
1717675202766,12.0000000000,0.0000000000,11.0000000000,53.0000000000,57.0000000000,3.0000000000
1717675202766,13.0000000000,0.0000000000,11.0000000000,53.0000000000,56.0000000000,2.0000000000
1717675202766,13.0000000000,0.0000000000,11.0000000000,52.0000000000,56.0000000000,3.0000000000
1717675202766,13.0000000000,0.0000000000,11.0000000000,51.0000000000,56.0000000000,2.0000000000
1717675202781,13.0000000000,0.0000000000,11.0000000000,51.0000000000,56.0000000000,2.0000000000
1717675202783,12.0000000000,0.0000000000,11.0000000000,52.0000000000,56.0000000000,2.0000000000
1717675202783,13.0000000000,0.0000000000,11.0000000000,51.0000000000,56.0000000000,2.0000000000
1717675202783,13.0000000000,0.0000000000,11.0000000000,51.0000000000,56.0000000000,2.0000000000
1717675202784,13.0000000000,0.0000000000,11.0000000000,51.0000000000,55.0000000000,2.0000000000
1717675202784,13.0000000000,0.0000000000,11.0000000000,51.0000000000,109.0000000000,3.0000000000
1717675202784,12.0000000000,0.0000000000,11.0000000000,51.0000000000,108.0000000000,2.0000000000
1717675202784,12.0000000000,0.0000000000,11.0000000000,51.0000000000,107.0000000000,3.0000000000
1717675202785,13.0000000000,0.0000000000,10.0000000000,50.0000000000,107.0000000000,3.0000000000
1717675202785,12.0000000000,0.0000000000,9.0000000000,50.0000000000,106.0000000000,2.0000000000
1717675202785,12.0000000000,0.0000000000,10.0000000000,50.0000000000,105.0000000000,2.0000000000
1717675202786,12.0000000000,0.0000000000,10.0000000000,49.0000000000,105.0000000000,2.0000000000
1717675202786,12.0000000000,0.0000000000,9.0000000000,49.0000000000,103.0000000000,2.0000000000
1717675202786,14.0000000000,0.0000000000,10.0000000000,49.0000000000,103.0000000000,2.0000000000
1717675202804,13.0000000000,0.0000000000,9.0000000000,51.0000000000,103.0000000000,2.0000000000
1717675202805,13.0000000000,0.0000000000,9.0000000000,95.0000000000,102.0000000000,2.0000000000
1717675202805,13.0000000000,0.0000000000,10.0000000000,93.0000000000,102.0000000000,2.0000000000
1717675202805,13.0000000000,0.0000000000,9.0000000000,92.0000000000,102.0000000000,2.0000000000
1717675202805,12.0000000000,0.0000000000,9.0000000000,92.0000000000,101.0000000000,2.0000000000
1717675202805,13.0000000000,0.0000000000,9.0000000000,92.0000000000,100.0000000000,2.0000000000
1717675202805,13.0000000000,0.0000000000,9.0000000000,91.0000000000,99.0000000000,2.0000000000
1717675202805,12.0000000000,0.0000000000,9.0000000000,91.0000000000,99.0000000000,2.0000000000
1717675202805,13.0000000000,0.0000000000,9.0000000000,90.0000000000,99.0000000000,2.0000000000
1717675202805,12.0000000000,0.0000000000,9.0000000000,90.0000000000,99.0000000000,2.0000000000
1717675202806,13.0000000000,0.0000000000,9.0000000000,89.0000000000,98.0000000000,2.0000000000
1717675202806,12.0000000000,0.0000000000,9.0000000000,89.0000000000,98.0000000000,2.0000000000
1717675202806,12.0000000000,0.0000000000,9.0000000000,88.0000000000,97.0000000000,1.0000000000
1717675202806,12.0000000000,0.0000000000,9.0000000000,88.0000000000,96.0000000000,2.0000000000
1717675202830,12.0000000000,0.0000000000,9.0000000000,88.0000000000,96.0000000000,2.0000000000
1717675202831,12.0000000000,0.0000000000,9.0000000000,88.0000000000,96.0000000000,2.0000000000
1717675202831,12.0000000000,0.0000000000,9.0000000000,87.0000000000,95.0000000000,1.0000000000
1717675202831,12.0000000000,0.0000000000,8.0000000000,87.0000000000,95.0000000000,2.0000000000
1717675202831,12.0000000000,0.0000000000,9.0000000000,86.0000000000,94.0000000000,2.0000000000
1717675202831,12.0000000000,0.0000000000,9.0000000000,86.0000000000,94.0000000000,1.0000000000
1717675202832,12.0000000000,0.0000000000,8.0000000000,84.0000000000,94.0000000000,2.0000000000
1717675202832,12.0000000000,0.0000000000,9.0000000000,84.0000000000,93.0000000000,2.0000000000
1717675202832,12.0000000000,0.0000000000,8.0000000000,84.0000000000,93.0000000000,2.0000000000
1717675202832,12.0000000000,0.0000000000,7.0000000000,83.0000000000,92.0000000000,2.0000000000
1717675202832,12.0000000000,0.0000000000,8.0000000000,83.0000000000,92.0000000000,1.0000000000
1717675202832,11.0000000000,0.0000000000,9.0000000000,83.0000000000,92.0000000000,2.0000000000
1717675202832,12.0000000000,0.0000000000,7.0000000000,82.0000000000,92.0000000000,1.0000000000
1717675202832,12.0000000000,0.0000000000,8.0000000000,83.0000000000,91.0000000000,1.0000000000
1717675202833,12.0000000000,0.0000000000,7.0000000000,82.0000000000,91.0000000000,1.0000000000
1717675202833,12.0000000000,0.0000000000,8.0000000000,81.0000000000,89.0000000000,2.0000000000
1717675202833,12.0000000000,0.0000000000,7.0000000000,81.0000000000,89.0000000000,1.0000000000
1717675202833,12.0000000000,0.0000000000,7.0000000000,81.0000000000,89.0000000000,1.0000000000
1717675202833,11.0000000000,0.0000000000,7.0000000000,80.0000000000,88.0000000000,1.0000000000
1717675202833,11.0000000000,0.0000000000,7.0000000000,79.0000000000,88.0000000000,1.0000000000
1717675202834,12.0000000000,0.0000000000,7.0000000000,79.0000000000,88.0000000000,1.0000000000
1717675202850,11.0000000000,0.0000000000,7.0000000000,79.0000000000,88.0000000000,1.0000000000
1717675202851,11.0000000000,0.0000000000,7.0000000000,79.0000000000,87.0000000000,1.0000000000
1717675202851,11.0000000000,0.0000000000,8.0000000000,79.0000000000,87.0000000000,1.0000000000
1717675202851,11.0000000000,0.0000000000,7.0000000000,78.0000000000,86.0000000000,2.0000000000
1717675202851,11.0000000000,0.0000000000,7.0000000000,78.0000000000,86.0000000000,1.0000000000
1717675202851,11.0000000000,0.0000000000,7.0000000000,78.0000000000,86.0000000000,1.0000000000
1717675202852,11.0000000000,0.0000000000,7.0000000000,77.0000000000,86.0000000000,1.0000000000
1717675202852,11.0000000000,0.0000000000,7.0000000000,77.0000000000,85.0000000000,1.0000000000
1717675202852,12.0000000000,0.0000000000,7.0000000000,76.0000000000,85.0000000000,1.0000000000
1717675202852,12.0000000000,0.0000000000,7.0000000000,76.0000000000,84.0000000000,1.0000000000
1717675202852,11.0000000000,0.0000000000,7.0000000000,76.0000000000,83.0000000000,1.0000000000
1717675202853,11.0000000000,0.0000000000,7.0000000000,75.0000000000,83.0000000000,1.0000000000
1717675202868,11.0000000000,0.0000000000,7.0000000000,75.0000000000,83.0000000000,1.0000000000
1717675202869,11.0000000000,0.0000000000,7.0000000000,75.0000000000,83.0000000000,1.0000000000
1717675202869,11.0000000000,0.0000000000,7.0000000000,75.0000000000,83.0000000000,1.0000000000
1717675202869,11.0000000000,0.0000000000,7.0000000000,74.0000000000,82.0000000000,1.0000000000
1717675202869,11.0000000000,0.0000000000,7.0000000000,73.0000000000,81.0000000000,1.0000000000
1717675202869,11.0000000000,0.0000000000,7.0000000000,73.0000000000,81.0000000000,1.0000000000
1717675202869,11.0000000000,0.0000000000,7.0000000000,73.0000000000,81.0000000000,1.0000000000
1717675202869,11.0000000000,0.0000000000,7.0000000000,71.0000000000,81.0000000000,1.0000000000
1717675202869,11.0000000000,0.0000000000,7.0000000000,71.0000000000,80.0000000000,1.0000000000
1717675202869,11.0000000000,0.0000000000,7.0000000000,71.0000000000,79.0000000000,1.0000000000
1717675202870,10.0000000000,0.0000000000,7.0000000000,71.0000000000,79.0000000000,1.0000000000
1717675202870,10.0000000000,0.0000000000,7.0000000000,71.0000000000,79.0000000000,1.0000000000
1717675202870,10.0000000000,0.0000000000,7.0000000000,71.0000000000,79.0000000000,1.0000000000
1717675202870,9.0000000000,0.0000000000,7.0000000000,71.0000000000,78.0000000000,1.0000000000
1717675202870,10.0000000000,0.0000000000,7.0000000000,70.0000000000,78.0000000000,1.0000000000
1717675202884,10.0000000000,0.0000000000,7.0000000000,70.0000000000,78.0000000000,1.0000000000
1717675202885,10.0000000000,0.0000000000,7.0000000000,70.0000000000,78.0000000000,1.0000000000
1717675202885,10.0000000000,0.0000000000,7.0000000000,70.0000000000,78.0000000000,1.0000000000
1717675202885,10.0000000000,0.0000000000,7.0000000000,69.0000000000,77.0000000000,1.0000000000
1717675202885,10.0000000000,0.0000000000,7.0000000000,68.0000000000,76.0000000000,1.0000000000
1717675202885,9.0000000000,0.0000000000,7.0000000000,68.0000000000,76.0000000000,1.0000000000
1717675202885,9.0000000000,0.0000000000,7.0000000000,67.0000000000,76.0000000000,1.0000000000
1717675202885,9.0000000000,0.0000000000,7.0000000000,68.0000000000,76.0000000000,1.0000000000
1717675202885,10.0000000000,0.0000000000,7.0000000000,67.0000000000,76.0000000000,1.0000000000
1717675202885,11.0000000000,0.0000000000,6.0000000000,67.0000000000,75.0000000000,1.0000000000
1717675202886,11.0000000000,0.0000000000,7.0000000000,67.0000000000,75.0000000000,1.0000000000
1717675202886,11.0000000000,0.0000000000,6.0000000000,66.0000000000,74.0000000000,1.0000000000
1717675202886,11.0000000000,0.0000000000,7.0000000000,67.0000000000,73.0000000000,1.0000000000
1717675202900,11.0000000000,0.0000000000,7.0000000000,66.0000000000,73.0000000000,1.0000000000
1717675202901,11.0000000000,0.0000000000,6.0000000000,65.0000000000,73.0000000000,1.0000000000
1717675202901,11.0000000000,0.0000000000,6.0000000000,65.0000000000,73.0000000000,1.0000000000
1717675202901,11.0000000000,0.0000000000,7.0000000000,64.0000000000,72.0000000000,1.0000000000
1717675202901,11.0000000000,0.0000000000,6.0000000000,65.0000000000,71.0000000000,1.0000000000
1717675202901,11.0000000000,0.0000000000,6.0000000000,64.0000000000,71.0000000000,1.0000000000
1717675202901,11.0000000000,0.0000000000,7.0000000000,64.0000000000,71.0000000000,1.0000000000
1717675202901,11.0000000000,0.0000000000,6.0000000000,63.0000000000,71.0000000000,1.0000000000
1717675202902,9.0000000000,0.0000000000,6.0000000000,63.0000000000,71.0000000000,1.0000000000
1717675202902,10.0000000000,0.0000000000,7.0000000000,63.0000000000,71.0000000000,1.0000000000
1717675202902,9.0000000000,0.0000000000,7.0000000000,63.0000000000,71.0000000000,1.0000000000
1717675202902,10.0000000000,0.0000000000,6.0000000000,63.0000000000,71.0000000000,1.0000000000
1717675202916,10.0000000000,0.0000000000,6.0000000000,63.0000000000,70.0000000000,1.0000000000
1717675202917,10.0000000000,0.0000000000,6.0000000000,62.0000000000,70.0000000000,1.0000000000
1717675202917,9.0000000000,0.0000000000,6.0000000000,62.0000000000,70.0000000000,0.0000000000
1717675202917,10.0000000000,0.0000000000,6.0000000000,62.0000000000,69.0000000000,0.0000000000
1717675202917,10.0000000000,0.0000000000,6.0000000000,62.0000000000,68.0000000000,0.0000000000
1717675202917,10.0000000000,0.0000000000,7.0000000000,63.0000000000,68.0000000000,1.0000000000
1717675202917,9.0000000000,0.0000000000,7.0000000000,62.0000000000,68.0000000000,0.0000000000
1717675202917,9.0000000000,0.0000000000,7.0000000000,62.0000000000,67.0000000000,1.0000000000
1717675202918,9.0000000000,0.0000000000,7.0000000000,62.0000000000,67.0000000000,1.0000000000
1717675202932,9.0000000000,0.0000000000,7.0000000000,61.0000000000,67.0000000000,0.0000000000
1717675202932,9.0000000000,0.0000000000,7.0000000000,62.0000000000,67.0000000000,1.0000000000
1717675202932,9.0000000000,0.0000000000,7.0000000000,61.0000000000,67.0000000000,1.0000000000
1717675202932,9.0000000000,0.0000000000,7.0000000000,61.0000000000,67.0000000000,1.0000000000
1717675202933,10.0000000000,0.0000000000,7.0000000000,60.0000000000,66.0000000000,1.0000000000
1717675202933,12.0000000000,0.0000000000,7.0000000000,60.0000000000,67.0000000000,1.0000000000
1717675202933,12.0000000000,0.0000000000,7.0000000000,60.0000000000,66.0000000000,1.0000000000
1717675202933,12.0000000000,0.0000000000,7.0000000000,60.0000000000,65.0000000000,1.0000000000
1717675202933,12.0000000000,0.0000000000,7.0000000000,60.0000000000,65.0000000000,1.0000000000
1717675202933,12.0000000000,0.0000000000,7.0000000000,59.0000000000,65.0000000000,1.0000000000
1717675202933,11.0000000000,0.0000000000,7.0000000000,59.0000000000,65.0000000000,1.0000000000
1717675202933,12.0000000000,0.0000000000,7.0000000000,59.0000000000,64.0000000000,0.0000000000
1717675202948,11.0000000000,0.0000000000,7.0000000000,58.0000000000,65.0000000000,1.0000000000
1717675202949,11.0000000000,0.0000000000,7.0000000000,58.0000000000,64.0000000000,1.0000000000
1717675202949,11.0000000000,0.0000000000,6.0000000000,58.0000000000,63.0000000000,0.0000000000
1717675202949,11.0000000000,0.0000000000,7.0000000000,57.0000000000,63.0000000000,1.0000000000
1717675202950,11.0000000000,0.0000000000,7.0000000000,57.0000000000,63.0000000000,1.0000000000
1717675202950,11.0000000000,0.0000000000,7.0000000000,57.0000000000,63.0000000000,0.0000000000
1717675202950,11.0000000000,0.0000000000,7.0000000000,56.0000000000,63.0000000000,1.0000000000
1717675202950,11.0000000000,0.0000000000,6.0000000000,56.0000000000,63.0000000000,2.0000000000
1717675202950,11.0000000000,0.0000000000,7.0000000000,56.0000000000,63.0000000000,1.0000000000
1717675202950,11.0000000000,0.0000000000,7.0000000000,56.0000000000,62.0000000000,2.0000000000
1717675202950,11.0000000000,0.0000000000,7.0000000000,56.0000000000,62.0000000000,2.0000000000
1717675202951,11.0000000000,0.0000000000,6.0000000000,56.0000000000,62.0000000000,1.0000000000
1717675202951,11.0000000000,0.0000000000,6.0000000000,56.0000000000,62.0000000000,1.0000000000
1717675202951,10.0000000000,0.0000000000,6.0000000000,55.0000000000,62.0000000000,2.0000000000
1717675202951,11.0000000000,0.0000000000,6.0000000000,55.0000000000,61.0000000000,1.0000000000
1717675202966,11.0000000000,0.0000000000,6.0000000000,55.0000000000,60.0000000000,1.0000000000
1717675202969,11.0000000000,0.0000000000,6.0000000000,54.0000000000,60.0000000000,1.0000000000
1717675202969,10.0000000000,0.0000000000,6.0000000000,54.0000000000,60.0000000000,1.0000000000
1717675202969,11.0000000000,0.0000000000,6.0000000000,54.0000000000,60.0000000000,2.0000000000
1717675202969,11.0000000000,0.0000000000,6.0000000000,54.0000000000,60.0000000000,1.0000000000
1717675202970,9.0000000000,0.0000000000,6.0000000000,54.0000000000,60.0000000000,2.0000000000
1717675202970,11.0000000000,0.0000000000,7.0000000000,53.0000000000,59.0000000000,2.0000000000
1717675202970,10.0000000000,0.0000000000,6.0000000000,53.0000000000,59.0000000000,8.0000000000
1717675202970,9.0000000000,0.0000000000,7.0000000000,53.0000000000,59.0000000000,9.0000000000
1717675202971,10.0000000000,0.0000000000,7.0000000000,52.0000000000,59.0000000000,9.0000000000
1717675202971,10.0000000000,0.0000000000,6.0000000000,52.0000000000,59.0000000000,9.0000000000
1717675202971,10.0000000000,0.0000000000,7.0000000000,52.0000000000,57.0000000000,9.0000000000
1717675202972,9.0000000000,0.0000000000,7.0000000000,51.0000000000,57.0000000000,9.0000000000
1717675202972,10.0000000000,0.0000000000,6.0000000000,51.0000000000,57.0000000000,9.0000000000
1717675202972,9.0000000000,0.0000000000,7.0000000000,51.0000000000,57.0000000000,9.0000000000
1717675202972,9.0000000000,0.0000000000,6.0000000000,59.0000000000,62.0000000000,7.0000000000
1717675202990,9.0000000000,0.0000000000,19.0000000000,113.0000000000,71.0000000000,8.0000000000
1717675202991,9.0000000000,0.0000000000,19.0000000000,112.0000000000,71.0000000000,7.0000000000
1717675202991,9.0000000000,0.0000000000,19.0000000000,111.0000000000,71.0000000000,7.0000000000
1717675202991,9.0000000000,0.0000000000,19.0000000000,111.0000000000,71.0000000000,8.0000000000
1717675202992,9.0000000000,0.0000000000,19.0000000000,110.0000000000,71.0000000000,7.0000000000
1717675202992,9.0000000000,0.0000000000,18.0000000000,109.0000000000,71.0000000000,10.0000000000
1717675202992,9.0000000000,0.0000000000,18.0000000000,108.0000000000,70.0000000000,10.0000000000
1717675202993,9.0000000000,0.0000000000,18.0000000000,108.0000000000,70.0000000000,10.0000000000
1717675202993,9.0000000000,0.0000000000,18.0000000000,107.0000000000,78.0000000000,10.0000000000
1717675202993,9.0000000000,0.0000000000,18.0000000000,107.0000000000,78.0000000000,10.0000000000
1717675202993,9.0000000000,0.0000000000,17.0000000000,106.0000000000,96.0000000000,10.0000000000
1717675202994,9.0000000000,0.0000000000,17.0000000000,105.0000000000,118.0000000000,9.0000000000
1717675202994,9.0000000000,0.0000000000,17.0000000000,103.0000000000,117.0000000000,9.0000000000
1717675203011,9.0000000000,0.0000000000,17.0000000000,103.0000000000,116.0000000000,9.0000000000
1717675203011,9.0000000000,0.0000000000,17.0000000000,103.0000000000,115.0000000000,9.0000000000
1717675203012,9.0000000000,0.0000000000,17.0000000000,103.0000000000,115.0000000000,9.0000000000
1717675203012,9.0000000000,0.0000000000,17.0000000000,103.0000000000,115.0000000000,65.0000000000
1717675203012,9.0000000000,0.0000000000,17.0000000000,102.0000000000,113.0000000000,64.0000000000
1717675203012,31.0000000000,0.0000000000,17.0000000000,102.0000000000,113.0000000000,63.0000000000
1717675203012,44.0000000000,0.0000000000,17.0000000000,100.0000000000,112.0000000000,63.0000000000
1717675203012,44.0000000000,0.0000000000,16.0000000000,100.0000000000,112.0000000000,63.0000000000
1717675203012,44.0000000000,0.0000000000,16.0000000000,99.0000000000,135.0000000000,62.0000000000
1717675203013,44.0000000000,0.0000000000,16.0000000000,99.0000000000,174.0000000000,62.0000000000
1717675203013,43.0000000000,0.0000000000,16.0000000000,99.0000000000,173.0000000000,62.0000000000
1717675203013,42.0000000000,0.0000000000,15.0000000000,97.0000000000,172.0000000000,60.0000000000
1717675203013,42.0000000000,0.0000000000,28.0000000000,97.0000000000,171.0000000000,60.0000000000
1717675203029,43.0000000000,0.0000000000,27.0000000000,97.0000000000,169.0000000000,60.0000000000
1717675203031,41.0000000000,0.0000000000,27.0000000000,96.0000000000,168.0000000000,60.0000000000
1717675203031,41.0000000000,0.0000000000,27.0000000000,96.0000000000,167.0000000000,60.0000000000
1717675203031,42.0000000000,0.0000000000,27.0000000000,95.0000000000,167.0000000000,59.0000000000
1717675203032,104.0000000000,0.0000000000,26.0000000000,94.0000000000,166.0000000000,59.0000000000
1717675203032,103.0000000000,0.0000000000,26.0000000000,94.0000000000,165.0000000000,58.0000000000
1717675203032,103.0000000000,0.0000000000,26.0000000000,93.0000000000,191.0000000000,58.0000000000
1717675203032,102.0000000000,0.0000000000,27.0000000000,93.0000000000,190.0000000000,57.0000000000
1717675203033,102.0000000000,0.0000000000,28.0000000000,92.0000000000,189.0000000000,57.0000000000
1717675203033,100.0000000000,0.0000000000,28.0000000000,92.0000000000,187.0000000000,56.0000000000
1717675203033,100.0000000000,0.0000000000,28.0000000000,91.0000000000,187.0000000000,56.0000000000
1717675203033,186.0000000000,21.0000000000,28.0000000000,91.0000000000,184.0000000000,56.0000000000
1717675203065,237.0000000000,22.0000000000,28.0000000000,90.0000000000,184.0000000000,56.0000000000
1717675203066,234.0000000000,22.0000000000,28.0000000000,89.0000000000,183.0000000000,56.0000000000
1717675203066,231.0000000000,21.0000000000,28.0000000000,89.0000000000,181.0000000000,56.0000000000
1717675203066,230.0000000000,21.0000000000,27.0000000000,89.0000000000,180.0000000000,55.0000000000
1717675203067,228.0000000000,23.0000000000,27.0000000000,88.0000000000,179.0000000000,54.0000000000
1717675203067,227.0000000000,22.0000000000,27.0000000000,88.0000000000,178.0000000000,54.0000000000
1717675203067,225.0000000000,22.0000000000,27.0000000000,88.0000000000,176.0000000000,54.0000000000
1717675203067,224.0000000000,22.0000000000,27.0000000000,86.0000000000,176.0000000000,54.0000000000
1717675203068,222.0000000000,22.0000000000,27.0000000000,86.0000000000,175.0000000000,52.0000000000
1717675203068,220.0000000000,24.0000000000,26.0000000000,86.0000000000,173.0000000000,52.0000000000
1717675203068,219.0000000000,23.0000000000,25.0000000000,85.0000000000,173.0000000000,52.0000000000
1717675203068,217.0000000000,23.0000000000,26.0000000000,84.0000000000,171.0000000000,52.0000000000
1717675203069,216.0000000000,23.0000000000,25.0000000000,84.0000000000,171.0000000000,52.0000000000
1717675203069,215.0000000000,23.0000000000,25.0000000000,83.0000000000,169.0000000000,51.0000000000
1717675203069,213.0000000000,23.0000000000,26.0000000000,83.0000000000,167.0000000000,51.0000000000
1717675203069,211.0000000000,23.0000000000,25.0000000000,82.0000000000,167.0000000000,51.0000000000
1717675203070,210.0000000000,22.0000000000,25.0000000000,82.0000000000,166.0000000000,51.0000000000
1717675203070,209.0000000000,22.0000000000,25.0000000000,81.0000000000,166.0000000000,50.0000000000
1717675203070,207.0000000000,22.0000000000,25.0000000000,81.0000000000,164.0000000000,50.0000000000
1717675203071,207.0000000000,22.0000000000,25.0000000000,80.0000000000,163.0000000000,50.0000000000
1717675203071,206.0000000000,22.0000000000,24.0000000000,79.0000000000,163.0000000000,49.0000000000
1717675203097,204.0000000000,22.0000000000,24.0000000000,79.0000000000,161.0000000000,49.0000000000
1717675203098,203.0000000000,21.0000000000,24.0000000000,79.0000000000,161.0000000000,49.0000000000
1717675203098,201.0000000000,21.0000000000,27.0000000000,79.0000000000,159.0000000000,48.0000000000
1717675203098,199.0000000000,20.0000000000,27.0000000000,79.0000000000,159.0000000000,48.0000000000
1717675203098,199.0000000000,20.0000000000,26.0000000000,78.0000000000,158.0000000000,48.0000000000
1717675203098,198.0000000000,20.0000000000,26.0000000000,79.0000000000,157.0000000000,48.0000000000
1717675203098,196.0000000000,20.0000000000,26.0000000000,78.0000000000,156.0000000000,48.0000000000
1717675203098,195.0000000000,20.0000000000,25.0000000000,78.0000000000,155.0000000000,47.0000000000
1717675203099,194.0000000000,20.0000000000,25.0000000000,78.0000000000,153.0000000000,47.0000000000
1717675203099,193.0000000000,20.0000000000,25.0000000000,77.0000000000,153.0000000000,47.0000000000
1717675203099,192.0000000000,20.0000000000,25.0000000000,76.0000000000,152.0000000000,46.0000000000
1717675203099,191.0000000000,19.0000000000,25.0000000000,76.0000000000,152.0000000000,46.0000000000
1717675203099,190.0000000000,19.0000000000,25.0000000000,76.0000000000,151.0000000000,46.0000000000
1717675203099,188.0000000000,19.0000000000,24.0000000000,86.0000000000,150.0000000000,45.0000000000
1717675203099,188.0000000000,19.0000000000,25.0000000000,84.0000000000,172.0000000000,45.0000000000
1717675203099,185.0000000000,19.0000000000,24.0000000000,84.0000000000,210.0000000000,45.0000000000
1717675203114,185.0000000000,19.0000000000,24.0000000000,83.0000000000,208.0000000000,44.0000000000
1717675203115,184.0000000000,19.0000000000,24.0000000000,83.0000000000,207.0000000000,44.0000000000
1717675203115,184.0000000000,19.0000000000,24.0000000000,82.0000000000,206.0000000000,44.0000000000
1717675203115,182.0000000000,19.0000000000,24.0000000000,82.0000000000,204.0000000000,44.0000000000
1717675203115,180.0000000000,19.0000000000,24.0000000000,81.0000000000,203.0000000000,44.0000000000
1717675203115,180.0000000000,18.0000000000,24.0000000000,81.0000000000,201.0000000000,43.0000000000
1717675203115,179.0000000000,18.0000000000,24.0000000000,79.0000000000,245.0000000000,43.0000000000
1717675203115,178.0000000000,18.0000000000,24.0000000000,79.0000000000,241.0000000000,42.0000000000
1717675203115,177.0000000000,18.0000000000,25.0000000000,79.0000000000,239.0000000000,43.0000000000
1717675203131,176.0000000000,18.0000000000,24.0000000000,79.0000000000,238.0000000000,42.0000000000
1717675203132,175.0000000000,18.0000000000,24.0000000000,78.0000000000,236.0000000000,42.0000000000
1717675203132,174.0000000000,17.0000000000,24.0000000000,77.0000000000,234.0000000000,41.0000000000
1717675203132,172.0000000000,17.0000000000,24.0000000000,77.0000000000,233.0000000000,41.0000000000
1717675203132,245.0000000000,18.0000000000,24.0000000000,77.0000000000,231.0000000000,41.0000000000
1717675203132,242.0000000000,17.0000000000,24.0000000000,76.0000000000,230.0000000000,40.0000000000
1717675203132,240.0000000000,17.0000000000,24.0000000000,76.0000000000,228.0000000000,39.0000000000
1717675203132,239.0000000000,17.0000000000,24.0000000000,76.0000000000,227.0000000000,39.0000000000
1717675203133,237.0000000000,17.0000000000,23.0000000000,75.0000000000,226.0000000000,39.0000000000
1717675203152,235.0000000000,18.0000000000,24.0000000000,75.0000000000,224.0000000000,39.0000000000
1717675203153,233.0000000000,19.0000000000,24.0000000000,74.0000000000,223.0000000000,39.0000000000
1717675203154,231.0000000000,19.0000000000,23.0000000000,73.0000000000,221.0000000000,39.0000000000
1717675203154,231.0000000000,19.0000000000,23.0000000000,73.0000000000,220.0000000000,39.0000000000
1717675203154,228.0000000000,19.0000000000,23.0000000000,71.0000000000,218.0000000000,39.0000000000
1717675203154,227.0000000000,18.0000000000,23.0000000000,71.0000000000,216.0000000000,39.0000000000
1717675203155,225.0000000000,18.0000000000,22.0000000000,71.0000000000,216.0000000000,39.0000000000
1717675203155,224.0000000000,18.0000000000,22.0000000000,71.0000000000,215.0000000000,38.0000000000
1717675203156,223.0000000000,17.0000000000,22.0000000000,71.0000000000,213.0000000000,38.0000000000
1717675203156,222.0000000000,18.0000000000,22.0000000000,71.0000000000,212.0000000000,38.0000000000
1717675203156,220.0000000000,35.0000000000,22.0000000000,70.0000000000,211.0000000000,38.0000000000
1717675203157,218.0000000000,35.0000000000,22.0000000000,70.0000000000,209.0000000000,38.0000000000
1717675203157,217.0000000000,35.0000000000,22.0000000000,70.0000000000,207.0000000000,37.0000000000
1717675203157,216.0000000000,35.0000000000,22.0000000000,68.0000000000,207.0000000000,37.0000000000
1717675203175,214.0000000000,35.0000000000,22.0000000000,68.0000000000,206.0000000000,36.0000000000
1717675203176,212.0000000000,34.0000000000,21.0000000000,68.0000000000,204.0000000000,36.0000000000
1717675203176,211.0000000000,34.0000000000,21.0000000000,67.0000000000,204.0000000000,36.0000000000
1717675203176,211.0000000000,34.0000000000,21.0000000000,67.0000000000,202.0000000000,36.0000000000
1717675203177,209.0000000000,33.0000000000,22.0000000000,67.0000000000,201.0000000000,36.0000000000
1717675203177,207.0000000000,33.0000000000,21.0000000000,66.0000000000,199.0000000000,35.0000000000
1717675203177,207.0000000000,33.0000000000,21.0000000000,66.0000000000,199.0000000000,35.0000000000
1717675203177,206.0000000000,33.0000000000,21.0000000000,66.0000000000,198.0000000000,35.0000000000
1717675203178,204.0000000000,32.0000000000,20.0000000000,65.0000000000,196.0000000000,35.0000000000
1717675203178,203.0000000000,32.0000000000,27.0000000000,65.0000000000,195.0000000000,35.0000000000
1717675203178,201.0000000000,32.0000000000,27.0000000000,65.0000000000,194.0000000000,35.0000000000
1717675203194,200.0000000000,31.0000000000,26.0000000000,64.0000000000,193.0000000000,34.0000000000
1717675203194,199.0000000000,31.0000000000,25.0000000000,63.0000000000,192.0000000000,34.0000000000
1717675203195,198.0000000000,31.0000000000,26.0000000000,63.0000000000,191.0000000000,34.0000000000
1717675203195,196.0000000000,31.0000000000,25.0000000000,63.0000000000,190.0000000000,33.0000000000
1717675203195,195.0000000000,31.0000000000,25.0000000000,63.0000000000,188.0000000000,33.0000000000
1717675203195,194.0000000000,31.0000000000,25.0000000000,67.0000000000,188.0000000000,33.0000000000
1717675203195,193.0000000000,31.0000000000,25.0000000000,76.0000000000,187.0000000000,33.0000000000
1717675203195,192.0000000000,31.0000000000,25.0000000000,76.0000000000,185.0000000000,33.0000000000
1717675203195,192.0000000000,30.0000000000,25.0000000000,75.0000000000,184.0000000000,33.0000000000
1717675203196,190.0000000000,30.0000000000,24.0000000000,75.0000000000,184.0000000000,32.0000000000
1717675203211,189.0000000000,30.0000000000,24.0000000000,74.0000000000,183.0000000000,31.0000000000
1717675203212,188.0000000000,30.0000000000,25.0000000000,73.0000000000,181.0000000000,32.0000000000
1717675203212,187.0000000000,29.0000000000,24.0000000000,73.0000000000,181.0000000000,32.0000000000
1717675203212,185.0000000000,30.0000000000,24.0000000000,73.0000000000,179.0000000000,31.0000000000
1717675203212,188.0000000000,29.0000000000,24.0000000000,71.0000000000,179.0000000000,31.0000000000
1717675203212,187.0000000000,29.0000000000,24.0000000000,71.0000000000,177.0000000000,31.0000000000
1717675203212,186.0000000000,28.0000000000,24.0000000000,71.0000000000,176.0000000000,31.0000000000
1717675203212,184.0000000000,29.0000000000,24.0000000000,71.0000000000,176.0000000000,31.0000000000
1717675203212,184.0000000000,28.0000000000,24.0000000000,70.0000000000,175.0000000000,31.0000000000
1717675203226,183.0000000000,28.0000000000,24.0000000000,70.0000000000,173.0000000000,31.0000000000
1717675203227,182.0000000000,28.0000000000,23.0000000000,70.0000000000,173.0000000000,30.0000000000
1717675203227,180.0000000000,28.0000000000,24.0000000000,69.0000000000,172.0000000000,31.0000000000
1717675203227,179.0000000000,28.0000000000,23.0000000000,68.0000000000,171.0000000000,30.0000000000
1717675203227,178.0000000000,28.0000000000,23.0000000000,67.0000000000,170.0000000000,30.0000000000
1717675203227,177.0000000000,28.0000000000,23.0000000000,67.0000000000,169.0000000000,30.0000000000
1717675203227,176.0000000000,27.0000000000,23.0000000000,67.0000000000,167.0000000000,30.0000000000
1717675203228,176.0000000000,27.0000000000,23.0000000000,67.0000000000,167.0000000000,30.0000000000
1717675203228,174.0000000000,27.0000000000,22.0000000000,67.0000000000,166.0000000000,30.0000000000
1717675203243,173.0000000000,60.0000000000,22.0000000000,66.0000000000,165.0000000000,30.0000000000
1717675203244,172.0000000000,60.0000000000,22.0000000000,65.0000000000,164.0000000000,29.0000000000
1717675203244,171.0000000000,60.0000000000,22.0000000000,65.0000000000,163.0000000000,29.0000000000
1717675203245,228.0000000000,59.0000000000,22.0000000000,65.0000000000,163.0000000000,29.0000000000
1717675203245,248.0000000000,59.0000000000,35.0000000000,64.0000000000,162.0000000000,28.0000000000
1717675203245,246.0000000000,58.0000000000,35.0000000000,63.0000000000,161.0000000000,28.0000000000
1717675203245,243.0000000000,57.0000000000,39.0000000000,63.0000000000,159.0000000000,28.0000000000
1717675203245,241.0000000000,57.0000000000,38.0000000000,63.0000000000,159.0000000000,28.0000000000
1717675203245,240.0000000000,57.0000000000,38.0000000000,63.0000000000,158.0000000000,28.0000000000
1717675203262,238.0000000000,56.0000000000,37.0000000000,63.0000000000,158.0000000000,28.0000000000
1717675203262,236.0000000000,56.0000000000,37.0000000000,63.0000000000,157.0000000000,28.0000000000
1717675203262,235.0000000000,56.0000000000,36.0000000000,62.0000000000,156.0000000000,28.0000000000
1717675203262,233.0000000000,56.0000000000,36.0000000000,62.0000000000,155.0000000000,28.0000000000
1717675203262,231.0000000000,56.0000000000,36.0000000000,62.0000000000,154.0000000000,27.0000000000
1717675203262,231.0000000000,55.0000000000,36.0000000000,61.0000000000,153.0000000000,27.0000000000
1717675203263,229.0000000000,55.0000000000,35.0000000000,60.0000000000,152.0000000000,27.0000000000
1717675203263,227.0000000000,54.0000000000,35.0000000000,92.0000000000,152.0000000000,27.0000000000
1717675203263,225.0000000000,54.0000000000,35.0000000000,91.0000000000,151.0000000000,27.0000000000
1717675203263,224.0000000000,54.0000000000,35.0000000000,90.0000000000,150.0000000000,26.0000000000
1717675203263,223.0000000000,53.0000000000,35.0000000000,89.0000000000,150.0000000000,26.0000000000
1717675203263,222.0000000000,53.0000000000,35.0000000000,89.0000000000,148.0000000000,26.0000000000
1717675203277,220.0000000000,52.0000000000,34.0000000000,88.0000000000,147.0000000000,25.0000000000
1717675203278,219.0000000000,51.0000000000,34.0000000000,88.0000000000,147.0000000000,26.0000000000
1717675203278,217.0000000000,51.0000000000,34.0000000000,88.0000000000,147.0000000000,25.0000000000
1717675203278,216.0000000000,51.0000000000,34.0000000000,87.0000000000,145.0000000000,25.0000000000
1717675203278,215.0000000000,51.0000000000,34.0000000000,86.0000000000,185.0000000000,25.0000000000
1717675203278,213.0000000000,51.0000000000,33.0000000000,86.0000000000,184.0000000000,25.0000000000
1717675203292,211.0000000000,50.0000000000,33.0000000000,86.0000000000,183.0000000000,25.0000000000
1717675203295,210.0000000000,50.0000000000,33.0000000000,84.0000000000,182.0000000000,24.0000000000
1717675203295,209.0000000000,50.0000000000,32.0000000000,84.0000000000,180.0000000000,24.0000000000
1717675203295,207.0000000000,49.0000000000,32.0000000000,83.0000000000,179.0000000000,24.0000000000
1717675203295,207.0000000000,49.0000000000,32.0000000000,83.0000000000,178.0000000000,24.0000000000
1717675203296,206.0000000000,49.0000000000,31.0000000000,83.0000000000,177.0000000000,24.0000000000
1717675203297,204.0000000000,49.0000000000,31.0000000000,82.0000000000,176.0000000000,24.0000000000
1717675203297,204.0000000000,48.0000000000,31.0000000000,81.0000000000,175.0000000000,24.0000000000
1717675203297,201.0000000000,48.0000000000,31.0000000000,81.0000000000,174.0000000000,24.0000000000
1717675203297,200.0000000000,47.0000000000,31.0000000000,80.0000000000,172.0000000000,24.0000000000
1717675203298,199.0000000000,47.0000000000,31.0000000000,80.0000000000,172.0000000000,24.0000000000
1717675203298,199.0000000000,47.0000000000,31.0000000000,79.0000000000,170.0000000000,24.0000000000
1717675203324,197.0000000000,51.0000000000,31.0000000000,79.0000000000,169.0000000000,24.0000000000
1717675203325,209.0000000000,53.0000000000,31.0000000000,79.0000000000,168.0000000000,23.0000000000
1717675203325,224.0000000000,52.0000000000,31.0000000000,78.0000000000,167.0000000000,23.0000000000
1717675203325,223.0000000000,52.0000000000,30.0000000000,78.0000000000,166.0000000000,23.0000000000
1717675203325,222.0000000000,51.0000000000,30.0000000000,77.0000000000,165.0000000000,22.0000000000
1717675203325,220.0000000000,51.0000000000,30.0000000000,77.0000000000,164.0000000000,23.0000000000
1717675203325,219.0000000000,51.0000000000,30.0000000000,76.0000000000,163.0000000000,22.0000000000
1717675203325,217.0000000000,51.0000000000,30.0000000000,76.0000000000,162.0000000000,23.0000000000
1717675203326,216.0000000000,67.0000000000,29.0000000000,75.0000000000,161.0000000000,22.0000000000
1717675203326,214.0000000000,89.0000000000,29.0000000000,75.0000000000,161.0000000000,22.0000000000
1717675203326,212.0000000000,88.0000000000,29.0000000000,75.0000000000,159.0000000000,22.0000000000
1717675203326,211.0000000000,87.0000000000,28.0000000000,73.0000000000,159.0000000000,22.0000000000
1717675203326,210.0000000000,87.0000000000,28.0000000000,73.0000000000,158.0000000000,22.0000000000
1717675203326,209.0000000000,86.0000000000,29.0000000000,73.0000000000,157.0000000000,22.0000000000
1717675203326,321.0000000000,88.0000000000,28.0000000000,71.0000000000,156.0000000000,21.0000000000
1717675203326,346.0000000000,158.0000000000,28.0000000000,71.0000000000,155.0000000000,21.0000000000
1717675203342,343.0000000000,156.0000000000,28.0000000000,71.0000000000,153.0000000000,21.0000000000
1717675203343,339.0000000000,154.0000000000,28.0000000000,71.0000000000,153.0000000000,20.0000000000
1717675203344,337.0000000000,152.0000000000,39.0000000000,71.0000000000,152.0000000000,21.0000000000
1717675203344,334.0000000000,152.0000000000,51.0000000000,71.0000000000,203.0000000000,20.0000000000
1717675203344,332.0000000000,151.0000000000,51.0000000000,70.0000000000,274.0000000000,20.0000000000
1717675203345,328.0000000000,150.0000000000,50.0000000000,70.0000000000,271.0000000000,20.0000000000
1717675203345,327.0000000000,148.0000000000,50.0000000000,69.0000000000,269.0000000000,20.0000000000
1717675203345,323.0000000000,147.0000000000,50.0000000000,68.0000000000,267.0000000000,20.0000000000
1717675203345,321.0000000000,147.0000000000,49.0000000000,67.0000000000,265.0000000000,19.0000000000
1717675203346,319.0000000000,145.0000000000,48.0000000000,67.0000000000,263.0000000000,20.0000000000
1717675203346,317.0000000000,143.0000000000,48.0000000000,67.0000000000,261.0000000000,20.0000000000
1717675203360,315.0000000000,143.0000000000,48.0000000000,67.0000000000,259.0000000000,19.0000000000
1717675203362,312.0000000000,153.0000000000,48.0000000000,96.0000000000,258.0000000000,19.0000000000
1717675203362,310.0000000000,152.0000000000,48.0000000000,127.0000000000,255.0000000000,19.0000000000
1717675203362,307.0000000000,152.0000000000,47.0000000000,127.0000000000,255.0000000000,19.0000000000
1717675203362,305.0000000000,150.0000000000,47.0000000000,126.0000000000,252.0000000000,19.0000000000
1717675203362,303.0000000000,148.0000000000,47.0000000000,124.0000000000,251.0000000000,19.0000000000
1717675203362,300.0000000000,147.0000000000,47.0000000000,124.0000000000,248.0000000000,19.0000000000
1717675203362,299.0000000000,147.0000000000,46.0000000000,123.0000000000,248.0000000000,19.0000000000
1717675203379,295.0000000000,145.0000000000,46.0000000000,122.0000000000,246.0000000000,19.0000000000
1717675203382,294.0000000000,144.0000000000,45.0000000000,121.0000000000,244.0000000000,18.0000000000
1717675203383,292.0000000000,143.0000000000,45.0000000000,120.0000000000,242.0000000000,19.0000000000
1717675203384,290.0000000000,142.0000000000,45.0000000000,120.0000000000,240.0000000000,18.0000000000
1717675203384,287.0000000000,141.0000000000,44.0000000000,119.0000000000,239.0000000000,18.0000000000
1717675203385,286.0000000000,141.0000000000,44.0000000000,118.0000000000,238.0000000000,18.0000000000
1717675203386,284.0000000000,140.0000000000,44.0000000000,117.0000000000,236.0000000000,17.0000000000
1717675203386,281.0000000000,139.0000000000,44.0000000000,115.0000000000,235.0000000000,17.0000000000
1717675203387,280.0000000000,137.0000000000,43.0000000000,115.0000000000,232.0000000000,17.0000000000
1717675203387,278.0000000000,137.0000000000,43.0000000000,114.0000000000,231.0000000000,18.0000000000
1717675203388,276.0000000000,135.0000000000,43.0000000000,113.0000000000,230.0000000000,35.0000000000
1717675203388,274.0000000000,135.0000000000,43.0000000000,113.0000000000,228.0000000000,35.0000000000
1717675203388,271.0000000000,134.0000000000,42.0000000000,112.0000000000,227.0000000000,35.0000000000
1717675203419,271.0000000000,134.0000000000,41.0000000000,111.0000000000,225.0000000000,34.0000000000
1717675203421,269.0000000000,132.0000000000,41.0000000000,111.0000000000,224.0000000000,33.0000000000
1717675203421,268.0000000000,131.0000000000,41.0000000000,110.0000000000,223.0000000000,33.0000000000
1717675203422,265.0000000000,131.0000000000,41.0000000000,109.0000000000,221.0000000000,33.0000000000
1717675203423,263.0000000000,130.0000000000,39.0000000000,108.0000000000,220.0000000000,32.0000000000
1717675203423,262.0000000000,129.0000000000,40.0000000000,108.0000000000,218.0000000000,32.0000000000
1717675203423,260.0000000000,128.0000000000,40.0000000000,107.0000000000,217.0000000000,32.0000000000
1717675203424,258.0000000000,127.0000000000,39.0000000000,106.0000000000,215.0000000000,32.0000000000
1717675203424,255.0000000000,127.0000000000,39.0000000000,105.0000000000,214.0000000000,31.0000000000
1717675203424,255.0000000000,126.0000000000,39.0000000000,104.0000000000,212.0000000000,31.0000000000
1717675203425,254.0000000000,126.0000000000,39.0000000000,128.0000000000,211.0000000000,31.0000000000
1717675203425,252.0000000000,124.0000000000,39.0000000000,130.0000000000,210.0000000000,31.0000000000
1717675203425,250.0000000000,124.0000000000,39.0000000000,129.0000000000,209.0000000000,31.0000000000
1717675203425,248.0000000000,123.0000000000,38.0000000000,127.0000000000,207.0000000000,31.0000000000
1717675203426,247.0000000000,121.0000000000,38.0000000000,127.0000000000,207.0000000000,31.0000000000
1717675203426,246.0000000000,121.0000000000,38.0000000000,126.0000000000,204.0000000000,30.0000000000
1717675203426,243.0000000000,120.0000000000,38.0000000000,125.0000000000,204.0000000000,30.0000000000
1717675203426,242.0000000000,120.0000000000,38.0000000000,124.0000000000,203.0000000000,30.0000000000
1717675203427,241.0000000000,119.0000000000,37.0000000000,124.0000000000,201.0000000000,30.0000000000
1717675203427,243.0000000000,119.0000000000,37.0000000000,123.0000000000,199.0000000000,30.0000000000
1717675203427,267.0000000000,222.0000000000,36.0000000000,121.0000000000,199.0000000000,30.0000000000
1717675203448,407.0000000000,230.0000000000,36.0000000000,120.0000000000,198.0000000000,29.0000000000
1717675203448,401.0000000000,227.0000000000,35.0000000000,120.0000000000,196.0000000000,29.0000000000
1717675203448,397.0000000000,225.0000000000,35.0000000000,120.0000000000,195.0000000000,29.0000000000
1717675203448,393.0000000000,224.0000000000,38.0000000000,118.0000000000,193.0000000000,28.0000000000
1717675203449,390.0000000000,222.0000000000,37.0000000000,118.0000000000,193.0000000000,28.0000000000
1717675203449,387.0000000000,220.0000000000,36.0000000000,116.0000000000,192.0000000000,28.0000000000
1717675203449,384.0000000000,219.0000000000,36.0000000000,116.0000000000,191.0000000000,28.0000000000
1717675203449,380.0000000000,217.0000000000,36.0000000000,115.0000000000,190.0000000000,28.0000000000
1717675203450,376.0000000000,216.0000000000,36.0000000000,115.0000000000,188.0000000000,28.0000000000
1717675203450,374.0000000000,214.0000000000,35.0000000000,113.0000000000,187.0000000000,28.0000000000
1717675203469,371.0000000000,211.0000000000,35.0000000000,113.0000000000,185.0000000000,27.0000000000
1717675203470,368.0000000000,211.0000000000,35.0000000000,112.0000000000,185.0000000000,27.0000000000
1717675203470,364.0000000000,209.0000000000,35.0000000000,111.0000000000,184.0000000000,27.0000000000
1717675203470,361.0000000000,207.0000000000,35.0000000000,111.0000000000,183.0000000000,27.0000000000
1717675203470,359.0000000000,207.0000000000,35.0000000000,110.0000000000,182.0000000000,26.0000000000
1717675203470,356.0000000000,205.0000000000,35.0000000000,109.0000000000,180.0000000000,28.0000000000
1717675203471,353.0000000000,204.0000000000,34.0000000000,108.0000000000,179.0000000000,28.0000000000
1717675203471,351.0000000000,203.0000000000,33.0000000000,108.0000000000,179.0000000000,27.0000000000
1717675203471,348.0000000000,201.0000000000,33.0000000000,107.0000000000,177.0000000000,27.0000000000
1717675203471,345.0000000000,199.0000000000,34.0000000000,106.0000000000,177.0000000000,27.0000000000
1717675203471,343.0000000000,199.0000000000,33.0000000000,105.0000000000,176.0000000000,27.0000000000
1717675203471,340.0000000000,197.0000000000,33.0000000000,104.0000000000,175.0000000000,27.0000000000
1717675203471,337.0000000000,195.0000000000,33.0000000000,103.0000000000,174.0000000000,26.0000000000
1717675203489,335.0000000000,195.0000000000,32.0000000000,103.0000000000,172.0000000000,26.0000000000
1717675203491,332.0000000000,193.0000000000,32.0000000000,103.0000000000,172.0000000000,26.0000000000
1717675203492,331.0000000000,192.0000000000,32.0000000000,102.0000000000,171.0000000000,26.0000000000
1717675203493,327.0000000000,191.0000000000,31.0000000000,102.0000000000,169.0000000000,28.0000000000
1717675203493,326.0000000000,189.0000000000,31.0000000000,101.0000000000,167.0000000000,28.0000000000
1717675203494,323.0000000000,188.0000000000,31.0000000000,100.0000000000,167.0000000000,28.0000000000
1717675203494,320.0000000000,188.0000000000,31.0000000000,99.0000000000,167.0000000000,28.0000000000
1717675203494,319.0000000000,185.0000000000,31.0000000000,99.0000000000,166.0000000000,27.0000000000
1717675203495,316.0000000000,184.0000000000,31.0000000000,99.0000000000,165.0000000000,28.0000000000
1717675203495,315.0000000000,184.0000000000,31.0000000000,97.0000000000,163.0000000000,27.0000000000
1717675203495,312.0000000000,183.0000000000,31.0000000000,97.0000000000,163.0000000000,27.0000000000
1717675203509,311.0000000000,182.0000000000,31.0000000000,96.0000000000,162.0000000000,27.0000000000
1717675203511,310.0000000000,180.0000000000,55.0000000000,96.0000000000,161.0000000000,26.0000000000
1717675203511,400.0000000000,179.0000000000,55.0000000000,96.0000000000,159.0000000000,26.0000000000
1717675203511,396.0000000000,179.0000000000,55.0000000000,95.0000000000,159.0000000000,26.0000000000
1717675203511,391.0000000000,177.0000000000,54.0000000000,94.0000000000,159.0000000000,26.0000000000
1717675203511,389.0000000000,176.0000000000,54.0000000000,94.0000000000,158.0000000000,26.0000000000
1717675203512,386.0000000000,175.0000000000,53.0000000000,95.0000000000,157.0000000000,25.0000000000
1717675203512,384.0000000000,231.0000000000,52.0000000000,94.0000000000,156.0000000000,25.0000000000
1717675203526,380.0000000000,271.0000000000,52.0000000000,93.0000000000,156.0000000000,25.0000000000
1717675203526,376.0000000000,268.0000000000,52.0000000000,92.0000000000,155.0000000000,24.0000000000
1717675203527,374.0000000000,265.0000000000,51.0000000000,92.0000000000,176.0000000000,25.0000000000
1717675203527,371.0000000000,263.0000000000,51.0000000000,92.0000000000,176.0000000000,25.0000000000
1717675203527,368.0000000000,262.0000000000,51.0000000000,91.0000000000,176.0000000000,25.0000000000
1717675203528,365.0000000000,259.0000000000,51.0000000000,91.0000000000,174.0000000000,24.0000000000
1717675203528,363.0000000000,257.0000000000,51.0000000000,89.0000000000,173.0000000000,24.0000000000
1717675203528,359.0000000000,255.0000000000,50.0000000000,89.0000000000,172.0000000000,24.0000000000
1717675203528,356.0000000000,254.0000000000,49.0000000000,88.0000000000,171.0000000000,24.0000000000
1717675203541,355.0000000000,252.0000000000,49.0000000000,88.0000000000,170.0000000000,24.0000000000
1717675203541,352.0000000000,249.0000000000,49.0000000000,88.0000000000,167.0000000000,24.0000000000
1717675203541,349.0000000000,248.0000000000,49.0000000000,88.0000000000,167.0000000000,24.0000000000
1717675203541,347.0000000000,248.0000000000,48.0000000000,87.0000000000,167.0000000000,23.0000000000
1717675203541,344.0000000000,246.0000000000,48.0000000000,86.0000000000,165.0000000000,23.0000000000
1717675203542,342.0000000000,243.0000000000,48.0000000000,86.0000000000,164.0000000000,24.0000000000
1717675203542,339.0000000000,242.0000000000,47.0000000000,84.0000000000,163.0000000000,23.0000000000
1717675203542,337.0000000000,240.0000000000,47.0000000000,84.0000000000,162.0000000000,22.0000000000
1717675203542,334.0000000000,239.0000000000,47.0000000000,84.0000000000,161.0000000000,23.0000000000
1717675203561,332.0000000000,238.0000000000,47.0000000000,83.0000000000,160.0000000000,23.0000000000
1717675203562,329.0000000000,236.0000000000,46.0000000000,83.0000000000,159.0000000000,22.0000000000
1717675203563,327.0000000000,235.0000000000,46.0000000000,82.0000000000,184.0000000000,23.0000000000
1717675203564,325.0000000000,232.0000000000,46.0000000000,82.0000000000,195.0000000000,22.0000000000
1717675203565,323.0000000000,231.0000000000,46.0000000000,81.0000000000,193.0000000000,28.0000000000
1717675203565,319.0000000000,230.0000000000,45.0000000000,81.0000000000,192.0000000000,27.0000000000
1717675203566,319.0000000000,228.0000000000,44.0000000000,81.0000000000,238.0000000000,27.0000000000
1717675203566,316.0000000000,227.0000000000,44.0000000000,79.0000000000,236.0000000000,27.0000000000
1717675203567,313.0000000000,225.0000000000,44.0000000000,79.0000000000,233.0000000000,26.0000000000
1717675203567,312.0000000000,224.0000000000,44.0000000000,127.0000000000,231.0000000000,26.0000000000
1717675203568,310.0000000000,222.0000000000,43.0000000000,126.0000000000,231.0000000000,26.0000000000
1717675203568,377.0000000000,221.0000000000,43.0000000000,124.0000000000,228.0000000000,25.0000000000
1717675203568,377.0000000000,220.0000000000,43.0000000000,124.0000000000,227.0000000000,25.0000000000
1717675203589,375.0000000000,218.0000000000,43.0000000000,123.0000000000,225.0000000000,25.0000000000
1717675203590,371.0000000000,216.0000000000,43.0000000000,122.0000000000,224.0000000000,25.0000000000
1717675203590,368.0000000000,216.0000000000,43.0000000000,121.0000000000,222.0000000000,24.0000000000
1717675203590,365.0000000000,215.0000000000,42.0000000000,120.0000000000,220.0000000000,25.0000000000
1717675203590,362.0000000000,212.0000000000,41.0000000000,120.0000000000,219.0000000000,24.0000000000
1717675203590,359.0000000000,211.0000000000,41.0000000000,118.0000000000,217.0000000000,24.0000000000
1717675203590,355.0000000000,210.0000000000,40.0000000000,118.0000000000,216.0000000000,24.0000000000
1717675203591,353.0000000000,209.0000000000,41.0000000000,116.0000000000,215.0000000000,24.0000000000
1717675203591,350.0000000000,207.0000000000,39.0000000000,115.0000000000,214.0000000000,24.0000000000
1717675203591,348.0000000000,206.0000000000,39.0000000000,115.0000000000,211.0000000000,24.0000000000
1717675203591,345.0000000000,205.0000000000,39.0000000000,115.0000000000,211.0000000000,24.0000000000
1717675203591,342.0000000000,226.0000000000,39.0000000000,113.0000000000,209.0000000000,24.0000000000
1717675203607,339.0000000000,224.0000000000,39.0000000000,113.0000000000,207.0000000000,23.0000000000
1717675203607,337.0000000000,223.0000000000,39.0000000000,112.0000000000,206.0000000000,23.0000000000
1717675203607,335.0000000000,221.0000000000,39.0000000000,111.0000000000,205.0000000000,24.0000000000
1717675203607,332.0000000000,220.0000000000,39.0000000000,111.0000000000,204.0000000000,23.0000000000
1717675203607,329.0000000000,217.0000000000,39.0000000000,110.0000000000,201.0000000000,22.0000000000
1717675203608,327.0000000000,216.0000000000,39.0000000000,110.0000000000,200.0000000000,23.0000000000
1717675203608,324.0000000000,214.0000000000,38.0000000000,108.0000000000,199.0000000000,22.0000000000
1717675203608,322.0000000000,212.0000000000,38.0000000000,108.0000000000,199.0000000000,23.0000000000
1717675203608,319.0000000000,211.0000000000,38.0000000000,107.0000000000,198.0000000000,22.0000000000
1717675203624,318.0000000000,210.0000000000,38.0000000000,105.0000000000,196.0000000000,22.0000000000
1717675203624,316.0000000000,208.0000000000,37.0000000000,105.0000000000,195.0000000000,22.0000000000
1717675203624,312.0000000000,207.0000000000,36.0000000000,104.0000000000,194.0000000000,21.0000000000
1717675203624,311.0000000000,207.0000000000,36.0000000000,103.0000000000,192.0000000000,21.0000000000
1717675203625,308.0000000000,205.0000000000,36.0000000000,135.0000000000,191.0000000000,21.0000000000
1717675203625,306.0000000000,204.0000000000,36.0000000000,135.0000000000,190.0000000000,21.0000000000
1717675203625,304.0000000000,203.0000000000,35.0000000000,134.0000000000,188.0000000000,20.0000000000
1717675203625,302.0000000000,201.0000000000,36.0000000000,132.0000000000,188.0000000000,20.0000000000
1717675203640,300.0000000000,199.0000000000,35.0000000000,131.0000000000,186.0000000000,20.0000000000
1717675203641,297.0000000000,199.0000000000,35.0000000000,130.0000000000,185.0000000000,20.0000000000
1717675203641,295.0000000000,198.0000000000,35.0000000000,129.0000000000,184.0000000000,20.0000000000
1717675203641,294.0000000000,196.0000000000,35.0000000000,128.0000000000,183.0000000000,20.0000000000
1717675203642,291.0000000000,195.0000000000,35.0000000000,127.0000000000,182.0000000000,20.0000000000
1717675203642,290.0000000000,194.0000000000,34.0000000000,127.0000000000,184.0000000000,20.0000000000
1717675203642,287.0000000000,192.0000000000,34.0000000000,126.0000000000,182.0000000000,20.0000000000
1717675203642,286.0000000000,192.0000000000,33.0000000000,124.0000000000,180.0000000000,19.0000000000
1717675203657,284.0000000000,190.0000000000,33.0000000000,124.0000000000,179.0000000000,20.0000000000
1717675203658,281.0000000000,189.0000000000,33.0000000000,124.0000000000,179.0000000000,20.0000000000
1717675203658,280.0000000000,188.0000000000,33.0000000000,122.0000000000,177.0000000000,20.0000000000
1717675203658,279.0000000000,187.0000000000,33.0000000000,121.0000000000,176.0000000000,20.0000000000
1717675203658,277.0000000000,185.0000000000,33.0000000000,121.0000000000,176.0000000000,20.0000000000
1717675203658,275.0000000000,185.0000000000,32.0000000000,120.0000000000,174.0000000000,19.0000000000
1717675203658,273.0000000000,184.0000000000,31.0000000000,120.0000000000,173.0000000000,19.0000000000
1717675203658,271.0000000000,183.0000000000,31.0000000000,118.0000000000,172.0000000000,19.0000000000
1717675203658,270.0000000000,182.0000000000,31.0000000000,117.0000000000,171.0000000000,19.0000000000
1717675203706,268.0000000000,180.0000000000,31.0000000000,117.0000000000,169.0000000000,19.0000000000
1717675203707,265.0000000000,179.0000000000,31.0000000000,115.0000000000,169.0000000000,19.0000000000
1717675203707,263.0000000000,178.0000000000,31.0000000000,115.0000000000,167.0000000000,19.0000000000
1717675203707,263.0000000000,177.0000000000,31.0000000000,115.0000000000,169.0000000000,19.0000000000
1717675203707,261.0000000000,176.0000000000,31.0000000000,113.0000000000,172.0000000000,19.0000000000
1717675203708,259.0000000000,175.0000000000,30.0000000000,113.0000000000,170.0000000000,18.0000000000
1717675203708,258.0000000000,174.0000000000,31.0000000000,112.0000000000,169.0000000000,18.0000000000
1717675203708,255.0000000000,174.0000000000,31.0000000000,112.0000000000,219.0000000000,17.0000000000
1717675203708,255.0000000000,172.0000000000,30.0000000000,110.0000000000,216.0000000000,18.0000000000
1717675203708,252.0000000000,171.0000000000,30.0000000000,110.0000000000,214.0000000000,17.0000000000
1717675203708,252.0000000000,169.0000000000,29.0000000000,110.0000000000,212.0000000000,18.0000000000
1717675203709,249.0000000000,169.0000000000,29.0000000000,109.0000000000,211.0000000000,17.0000000000
1717675203709,248.0000000000,167.0000000000,30.0000000000,108.0000000000,209.0000000000,17.0000000000
1717675203709,247.0000000000,167.0000000000,30.0000000000,108.0000000000,208.0000000000,17.0000000000
1717675203709,245.0000000000,167.0000000000,28.0000000000,107.0000000000,207.0000000000,17.0000000000
1717675203709,243.0000000000,174.0000000000,29.0000000000,105.0000000000,206.0000000000,17.0000000000
1717675203709,243.0000000000,328.0000000000,29.0000000000,105.0000000000,204.0000000000,17.0000000000
1717675203709,240.0000000000,391.0000000000,28.0000000000,103.0000000000,203.0000000000,17.0000000000
1717675203710,240.0000000000,387.0000000000,28.0000000000,103.0000000000,201.0000000000,16.0000000000
1717675203710,238.0000000000,384.0000000000,34.0000000000,103.0000000000,199.0000000000,17.0000000000
1717675203710,236.0000000000,380.0000000000,33.0000000000,102.0000000000,199.0000000000,16.0000000000
1717675203710,235.0000000000,376.0000000000,33.0000000000,102.0000000000,196.0000000000,17.0000000000
1717675203710,233.0000000000,374.0000000000,33.0000000000,100.0000000000,196.0000000000,16.0000000000
1717675203710,231.0000000000,370.0000000000,33.0000000000,100.0000000000,195.0000000000,16.0000000000
1717675203710,231.0000000000,368.0000000000,32.0000000000,99.0000000000,193.0000000000,16.0000000000
1717675203711,230.0000000000,365.0000000000,33.0000000000,99.0000000000,192.0000000000,15.0000000000
1717675203711,228.0000000000,363.0000000000,31.0000000000,98.0000000000,191.0000000000,15.0000000000
1717675203725,227.0000000000,359.0000000000,31.0000000000,97.0000000000,190.0000000000,15.0000000000
1717675203725,225.0000000000,356.0000000000,31.0000000000,97.0000000000,188.0000000000,15.0000000000
1717675203725,224.0000000000,355.0000000000,31.0000000000,97.0000000000,188.0000000000,15.0000000000
1717675203726,223.0000000000,352.0000000000,31.0000000000,96.0000000000,187.0000000000,15.0000000000
1717675203726,222.0000000000,349.0000000000,31.0000000000,96.0000000000,185.0000000000,15.0000000000
1717675203726,220.0000000000,347.0000000000,31.0000000000,95.0000000000,184.0000000000,15.0000000000
1717675203726,219.0000000000,344.0000000000,31.0000000000,94.0000000000,183.0000000000,15.0000000000
1717675203726,218.0000000000,342.0000000000,31.0000000000,94.0000000000,182.0000000000,15.0000000000
1717675203726,216.0000000000,339.0000000000,31.0000000000,93.0000000000,180.0000000000,15.0000000000
1717675203742,216.0000000000,337.0000000000,30.0000000000,93.0000000000,179.0000000000,15.0000000000
1717675203742,215.0000000000,335.0000000000,30.0000000000,92.0000000000,178.0000000000,15.0000000000
1717675203743,213.0000000000,332.0000000000,38.0000000000,111.0000000000,177.0000000000,15.0000000000
1717675203743,211.0000000000,330.0000000000,38.0000000000,110.0000000000,176.0000000000,15.0000000000
1717675203743,211.0000000000,327.0000000000,37.0000000000,109.0000000000,175.0000000000,15.0000000000
1717675203743,209.0000000000,326.0000000000,37.0000000000,109.0000000000,174.0000000000,15.0000000000
1717675203743,207.0000000000,323.0000000000,36.0000000000,108.0000000000,173.0000000000,15.0000000000
1717675203744,207.0000000000,320.0000000000,36.0000000000,107.0000000000,172.0000000000,15.0000000000
1717675203758,206.0000000000,318.0000000000,36.0000000000,106.0000000000,171.0000000000,15.0000000000
1717675203758,204.0000000000,316.0000000000,35.0000000000,105.0000000000,169.0000000000,15.0000000000
1717675203759,204.0000000000,314.0000000000,35.0000000000,104.0000000000,169.0000000000,15.0000000000
1717675203759,203.0000000000,312.0000000000,35.0000000000,103.0000000000,167.0000000000,15.0000000000
1717675203759,201.0000000000,311.0000000000,35.0000000000,103.0000000000,167.0000000000,15.0000000000
1717675203759,199.0000000000,307.0000000000,35.0000000000,103.0000000000,166.0000000000,14.0000000000
1717675203759,199.0000000000,306.0000000000,35.0000000000,102.0000000000,164.0000000000,15.0000000000
1717675203759,198.0000000000,304.0000000000,35.0000000000,102.0000000000,163.0000000000,15.0000000000
1717675203759,196.0000000000,302.0000000000,35.0000000000,100.0000000000,163.0000000000,15.0000000000
1717675203775,195.0000000000,300.0000000000,35.0000000000,100.0000000000,162.0000000000,15.0000000000
1717675203776,194.0000000000,297.0000000000,35.0000000000,99.0000000000,161.0000000000,15.0000000000
1717675203776,193.0000000000,295.0000000000,34.0000000000,98.0000000000,159.0000000000,14.0000000000
1717675203776,192.0000000000,294.0000000000,35.0000000000,98.0000000000,159.0000000000,14.0000000000
1717675203776,191.0000000000,292.0000000000,34.0000000000,97.0000000000,158.0000000000,14.0000000000
1717675203776,190.0000000000,290.0000000000,34.0000000000,97.0000000000,158.0000000000,14.0000000000
1717675203776,189.0000000000,287.0000000000,34.0000000000,96.0000000000,156.0000000000,14.0000000000
1717675203777,188.0000000000,286.0000000000,34.0000000000,96.0000000000,155.0000000000,14.0000000000
1717675203792,187.0000000000,284.0000000000,33.0000000000,95.0000000000,211.0000000000,14.0000000000
1717675203793,185.0000000000,283.0000000000,33.0000000000,95.0000000000,214.0000000000,14.0000000000
1717675203793,185.0000000000,281.0000000000,33.0000000000,94.0000000000,211.0000000000,14.0000000000
1717675203793,184.0000000000,280.0000000000,33.0000000000,94.0000000000,210.0000000000,14.0000000000
1717675203793,183.0000000000,278.0000000000,33.0000000000,93.0000000000,208.0000000000,14.0000000000
1717675203793,182.0000000000,275.0000000000,32.0000000000,92.0000000000,207.0000000000,14.0000000000
1717675203793,181.0000000000,275.0000000000,32.0000000000,92.0000000000,206.0000000000,14.0000000000
1717675203793,179.0000000000,272.0000000000,31.0000000000,92.0000000000,204.0000000000,18.0000000000
1717675203793,179.0000000000,271.0000000000,31.0000000000,91.0000000000,252.0000000000,71.0000000000
1717675203811,178.0000000000,270.0000000000,31.0000000000,115.0000000000,298.0000000000,70.0000000000
1717675203812,177.0000000000,268.0000000000,31.0000000000,115.0000000000,295.0000000000,70.0000000000
1717675203813,176.0000000000,265.0000000000,31.0000000000,113.0000000000,292.0000000000,69.0000000000
1717675203813,175.0000000000,263.0000000000,31.0000000000,112.0000000000,290.0000000000,68.0000000000
1717675203813,174.0000000000,263.0000000000,31.0000000000,112.0000000000,287.0000000000,67.0000000000
1717675203813,174.0000000000,260.0000000000,31.0000000000,111.0000000000,286.0000000000,67.0000000000
1717675203814,172.0000000000,259.0000000000,31.0000000000,110.0000000000,284.0000000000,67.0000000000
1717675203814,171.0000000000,257.0000000000,31.0000000000,110.0000000000,281.0000000000,66.0000000000
1717675203814,171.0000000000,255.0000000000,31.0000000000,109.0000000000,280.0000000000,65.0000000000
1717675203814,169.0000000000,254.0000000000,31.0000000000,108.0000000000,278.0000000000,65.0000000000
1717675203815,169.0000000000,253.0000000000,30.0000000000,108.0000000000,275.0000000000,64.0000000000
1717675203830,194.0000000000,252.0000000000,30.0000000000,106.0000000000,273.0000000000,63.0000000000
1717675203831,301.0000000000,251.0000000000,30.0000000000,105.0000000000,271.0000000000,63.0000000000
1717675203831,297.0000000000,248.0000000000,30.0000000000,105.0000000000,270.0000000000,63.0000000000
1717675203831,295.0000000000,247.0000000000,30.0000000000,103.0000000000,268.0000000000,63.0000000000
1717675203831,292.0000000000,246.0000000000,29.0000000000,119.0000000000,265.0000000000,63.0000000000
1717675203831,289.0000000000,243.0000000000,29.0000000000,117.0000000000,263.0000000000,62.0000000000
1717675203832,287.0000000000,242.0000000000,30.0000000000,116.0000000000,263.0000000000,62.0000000000
1717675203832,285.0000000000,241.0000000000,29.0000000000,115.0000000000,260.0000000000,60.0000000000
1717675203847,283.0000000000,240.0000000000,29.0000000000,114.0000000000,259.0000000000,61.0000000000
1717675203848,280.0000000000,238.0000000000,28.0000000000,114.0000000000,257.0000000000,60.0000000000
1717675203848,279.0000000000,236.0000000000,28.0000000000,113.0000000000,255.0000000000,60.0000000000
1717675203848,276.0000000000,236.0000000000,28.0000000000,112.0000000000,254.0000000000,59.0000000000
1717675203848,274.0000000000,233.0000000000,28.0000000000,112.0000000000,252.0000000000,59.0000000000
1717675203848,272.0000000000,232.0000000000,28.0000000000,111.0000000000,250.0000000000,59.0000000000
1717675203848,270.0000000000,231.0000000000,28.0000000000,110.0000000000,248.0000000000,59.0000000000
1717675203848,268.0000000000,230.0000000000,28.0000000000,110.0000000000,248.0000000000,57.0000000000
1717675203849,267.0000000000,228.0000000000,27.0000000000,109.0000000000,245.0000000000,57.0000000000
1717675203849,263.0000000000,227.0000000000,27.0000000000,108.0000000000,243.0000000000,57.0000000000
1717675203849,263.0000000000,225.0000000000,27.0000000000,107.0000000000,243.0000000000,56.0000000000
1717675203865,260.0000000000,224.0000000000,27.0000000000,106.0000000000,241.0000000000,56.0000000000
1717675203866,259.0000000000,223.0000000000,27.0000000000,105.0000000000,240.0000000000,56.0000000000
1717675203866,257.0000000000,222.0000000000,27.0000000000,105.0000000000,238.0000000000,56.0000000000
1717675203866,255.0000000000,220.0000000000,27.0000000000,103.0000000000,236.0000000000,56.0000000000
1717675203866,254.0000000000,219.0000000000,36.0000000000,103.0000000000,235.0000000000,55.0000000000
1717675203866,252.0000000000,217.0000000000,42.0000000000,103.0000000000,233.0000000000,55.0000000000
1717675203867,249.0000000000,216.0000000000,41.0000000000,102.0000000000,231.0000000000,55.0000000000
1717675203867,248.0000000000,216.0000000000,41.0000000000,102.0000000000,230.0000000000,54.0000000000
1717675203881,247.0000000000,214.0000000000,40.0000000000,101.0000000000,228.0000000000,54.0000000000
1717675203882,245.0000000000,212.0000000000,39.0000000000,99.0000000000,227.0000000000,53.0000000000
1717675203882,243.0000000000,211.0000000000,40.0000000000,99.0000000000,227.0000000000,53.0000000000
1717675203882,241.0000000000,211.0000000000,39.0000000000,98.0000000000,225.0000000000,52.0000000000
1717675203882,240.0000000000,209.0000000000,39.0000000000,131.0000000000,224.0000000000,51.0000000000
1717675203882,239.0000000000,207.0000000000,39.0000000000,170.0000000000,222.0000000000,51.0000000000
1717675203882,259.0000000000,207.0000000000,39.0000000000,167.0000000000,220.0000000000,51.0000000000
1717675203883,261.0000000000,205.0000000000,39.0000000000,167.0000000000,220.0000000000,51.0000000000
1717675203897,259.0000000000,205.0000000000,39.0000000000,166.0000000000,217.0000000000,51.0000000000
1717675203898,257.0000000000,203.0000000000,39.0000000000,163.0000000000,216.0000000000,51.0000000000
1717675203898,255.0000000000,203.0000000000,39.0000000000,163.0000000000,215.0000000000,50.0000000000
1717675203898,253.0000000000,201.0000000000,38.0000000000,161.0000000000,214.0000000000,49.0000000000
1717675203898,251.0000000000,199.0000000000,38.0000000000,160.0000000000,213.0000000000,49.0000000000
1717675203898,249.0000000000,199.0000000000,37.0000000000,159.0000000000,211.0000000000,49.0000000000
1717675203899,248.0000000000,198.0000000000,37.0000000000,158.0000000000,209.0000000000,49.0000000000
1717675203899,246.0000000000,196.0000000000,37.0000000000,157.0000000000,209.0000000000,48.0000000000
1717675203899,243.0000000000,195.0000000000,36.0000000000,156.0000000000,207.0000000000,48.0000000000
1717675203932,241.0000000000,194.0000000000,36.0000000000,155.0000000000,207.0000000000,48.0000000000
1717675203934,240.0000000000,193.0000000000,35.0000000000,153.0000000000,205.0000000000,48.0000000000
1717675203934,238.0000000000,192.0000000000,35.0000000000,153.0000000000,204.0000000000,47.0000000000
1717675203934,237.0000000000,191.0000000000,36.0000000000,152.0000000000,203.0000000000,47.0000000000
1717675203934,236.0000000000,190.0000000000,35.0000000000,152.0000000000,201.0000000000,47.0000000000
1717675203934,234.0000000000,189.0000000000,35.0000000000,150.0000000000,199.0000000000,47.0000000000
1717675203934,231.0000000000,188.0000000000,34.0000000000,148.0000000000,199.0000000000,46.0000000000
1717675203934,231.0000000000,187.0000000000,35.0000000000,148.0000000000,198.0000000000,46.0000000000
1717675203935,230.0000000000,185.0000000000,35.0000000000,147.0000000000,281.0000000000,47.0000000000
1717675203935,249.0000000000,184.0000000000,34.0000000000,145.0000000000,279.0000000000,47.0000000000
1717675203935,248.0000000000,184.0000000000,34.0000000000,145.0000000000,276.0000000000,47.0000000000
1717675203935,245.0000000000,183.0000000000,34.0000000000,143.0000000000,274.0000000000,46.0000000000
1717675203936,243.0000000000,182.0000000000,34.0000000000,143.0000000000,271.0000000000,45.0000000000
1717675203936,241.0000000000,180.0000000000,33.0000000000,142.0000000000,270.0000000000,46.0000000000
1717675203936,368.0000000000,179.0000000000,33.0000000000,141.0000000000,268.0000000000,45.0000000000
1717675203936,382.0000000000,179.0000000000,33.0000000000,140.0000000000,265.0000000000,45.0000000000
1717675203937,377.0000000000,177.0000000000,33.0000000000,140.0000000000,263.0000000000,44.0000000000
1717675203937,374.0000000000,176.0000000000,32.0000000000,139.0000000000,262.0000000000,44.0000000000
1717675203937,371.0000000000,176.0000000000,32.0000000000,137.0000000000,262.0000000000,44.0000000000
1717675203957,368.0000000000,175.0000000000,31.0000000000,136.0000000000,259.0000000000,44.0000000000
1717675203958,364.0000000000,174.0000000000,31.0000000000,135.0000000000,257.0000000000,44.0000000000
1717675203958,361.0000000000,173.0000000000,31.0000000000,135.0000000000,255.0000000000,44.0000000000
1717675203958,359.0000000000,172.0000000000,31.0000000000,134.0000000000,254.0000000000,43.0000000000
1717675203959,355.0000000000,171.0000000000,31.0000000000,132.0000000000,252.0000000000,43.0000000000
1717675203959,353.0000000000,170.0000000000,31.0000000000,131.0000000000,251.0000000000,43.0000000000
1717675203959,350.0000000000,169.0000000000,31.0000000000,131.0000000000,249.0000000000,41.0000000000
1717675203959,348.0000000000,167.0000000000,31.0000000000,131.0000000000,248.0000000000,41.0000000000
1717675203959,344.0000000000,167.0000000000,30.0000000000,129.0000000000,246.0000000000,41.0000000000
1717675203959,342.0000000000,167.0000000000,30.0000000000,129.0000000000,244.0000000000,41.0000000000
1717675203959,339.0000000000,166.0000000000,30.0000000000,127.0000000000,243.0000000000,41.0000000000
1717675203960,337.0000000000,163.0000000000,30.0000000000,127.0000000000,241.0000000000,40.0000000000
1717675203980,334.0000000000,163.0000000000,30.0000000000,127.0000000000,240.0000000000,40.0000000000
1717675203980,332.0000000000,163.0000000000,29.0000000000,126.0000000000,238.0000000000,39.0000000000
1717675203981,329.0000000000,161.0000000000,30.0000000000,125.0000000000,236.0000000000,39.0000000000
1717675203981,327.0000000000,161.0000000000,30.0000000000,124.0000000000,235.0000000000,39.0000000000
1717675203981,324.0000000000,159.0000000000,28.0000000000,124.0000000000,233.0000000000,39.0000000000
1717675203981,322.0000000000,159.0000000000,29.0000000000,123.0000000000,231.0000000000,39.0000000000
1717675203981,319.0000000000,158.0000000000,28.0000000000,122.0000000000,231.0000000000,39.0000000000
1717675203982,318.0000000000,157.0000000000,28.0000000000,121.0000000000,229.0000000000,39.0000000000
1717675203982,315.0000000000,157.0000000000,28.0000000000,120.0000000000,227.0000000000,38.0000000000
1717675203982,312.0000000000,156.0000000000,28.0000000000,120.0000000000,226.0000000000,39.0000000000
1717675203982,311.0000000000,155.0000000000,28.0000000000,119.0000000000,224.0000000000,38.0000000000
1717675204005,308.0000000000,153.0000000000,27.0000000000,118.0000000000,223.0000000000,38.0000000000
1717675204006,306.0000000000,153.0000000000,28.0000000000,117.0000000000,222.0000000000,38.0000000000
1717675204007,304.0000000000,152.0000000000,27.0000000000,116.0000000000,220.0000000000,38.0000000000
1717675204007,450.0000000000,152.0000000000,28.0000000000,115.0000000000,220.0000000000,36.0000000000
1717675204007,507.0000000000,223.0000000000,27.0000000000,115.0000000000,217.0000000000,36.0000000000
1717675204007,500.0000000000,220.0000000000,36.0000000000,115.0000000000,216.0000000000,36.0000000000
1717675204007,495.0000000000,219.0000000000,36.0000000000,114.0000000000,215.0000000000,36.0000000000
1717675204008,490.0000000000,216.0000000000,36.0000000000,113.0000000000,214.0000000000,36.0000000000
1717675204008,485.0000000000,216.0000000000,36.0000000000,112.0000000000,211.0000000000,36.0000000000
1717675204008,480.0000000000,214.0000000000,35.0000000000,112.0000000000,211.0000000000,35.0000000000
1717675204008,476.0000000000,212.0000000000,35.0000000000,111.0000000000,209.0000000000,35.0000000000
1717675204009,472.0000000000,210.0000000000,35.0000000000,110.0000000000,208.0000000000,35.0000000000
1717675204009,467.0000000000,209.0000000000,35.0000000000,110.0000000000,207.0000000000,35.0000000000
1717675204009,463.0000000000,207.0000000000,35.0000000000,108.0000000000,206.0000000000,34.0000000000
1717675204092,459.0000000000,206.0000000000,34.0000000000,108.0000000000,204.0000000000,34.0000000000
1717675204093,455.0000000000,204.0000000000,34.0000000000,108.0000000000,203.0000000000,34.0000000000
1717675204094,451.0000000000,203.0000000000,34.0000000000,107.0000000000,202.0000000000,34.0000000000
1717675204094,448.0000000000,201.0000000000,33.0000000000,106.0000000000,201.0000000000,33.0000000000
1717675204095,444.0000000000,199.0000000000,33.0000000000,105.0000000000,199.0000000000,34.0000000000
1717675204095,440.0000000000,199.0000000000,33.0000000000,105.0000000000,199.0000000000,54.0000000000
1717675204095,435.0000000000,198.0000000000,33.0000000000,103.0000000000,197.0000000000,61.0000000000
1717675204096,432.0000000000,196.0000000000,32.0000000000,103.0000000000,195.0000000000,61.0000000000
1717675204096,428.0000000000,195.0000000000,32.0000000000,103.0000000000,195.0000000000,60.0000000000
1717675204096,425.0000000000,194.0000000000,32.0000000000,103.0000000000,193.0000000000,59.0000000000
1717675204097,422.0000000000,192.0000000000,32.0000000000,102.0000000000,193.0000000000,60.0000000000
1717675204097,418.0000000000,192.0000000000,31.0000000000,102.0000000000,192.0000000000,59.0000000000
1717675204097,415.0000000000,190.0000000000,31.0000000000,101.0000000000,190.0000000000,58.0000000000
1717675204098,412.0000000000,189.0000000000,59.0000000000,100.0000000000,189.0000000000,57.0000000000
1717675204098,408.0000000000,188.0000000000,59.0000000000,99.0000000000,188.0000000000,57.0000000000
1717675204098,406.0000000000,187.0000000000,58.0000000000,99.0000000000,187.0000000000,57.0000000000
1717675204098,401.0000000000,185.0000000000,57.0000000000,98.0000000000,186.0000000000,56.0000000000
1717675204098,399.0000000000,184.0000000000,57.0000000000,98.0000000000,185.0000000000,56.0000000000
1717675204098,396.0000000000,183.0000000000,56.0000000000,96.0000000000,184.0000000000,56.0000000000
1717675204098,393.0000000000,182.0000000000,56.0000000000,97.0000000000,184.0000000000,56.0000000000
1717675204099,390.0000000000,180.0000000000,56.0000000000,96.0000000000,182.0000000000,56.0000000000
1717675204099,387.0000000000,179.0000000000,56.0000000000,95.0000000000,180.0000000000,55.0000000000
1717675204099,384.0000000000,179.0000000000,56.0000000000,95.0000000000,179.0000000000,55.0000000000
1717675204099,382.0000000000,177.0000000000,55.0000000000,95.0000000000,179.0000000000,54.0000000000
1717675204100,380.0000000000,177.0000000000,54.0000000000,94.0000000000,178.0000000000,54.0000000000
1717675204100,376.0000000000,176.0000000000,53.0000000000,93.0000000000,177.0000000000,54.0000000000
1717675204100,374.0000000000,174.0000000000,54.0000000000,92.0000000000,176.0000000000,53.0000000000
1717675204100,371.0000000000,173.0000000000,54.0000000000,129.0000000000,175.0000000000,52.0000000000
1717675204101,368.0000000000,219.0000000000,52.0000000000,143.0000000000,174.0000000000,52.0000000000
1717675204101,366.0000000000,241.0000000000,53.0000000000,142.0000000000,173.0000000000,52.0000000000
1717675204101,363.0000000000,239.0000000000,52.0000000000,141.0000000000,172.0000000000,51.0000000000
1717675204102,359.0000000000,237.0000000000,52.0000000000,140.0000000000,172.0000000000,51.0000000000
1717675204102,358.0000000000,236.0000000000,51.0000000000,139.0000000000,170.0000000000,51.0000000000
1717675204102,355.0000000000,234.0000000000,51.0000000000,137.0000000000,169.0000000000,51.0000000000
1717675204102,352.0000000000,231.0000000000,50.0000000000,135.0000000000,167.0000000000,50.0000000000
1717675204103,350.0000000000,230.0000000000,51.0000000000,135.0000000000,167.0000000000,49.0000000000
1717675204103,348.0000000000,228.0000000000,51.0000000000,135.0000000000,166.0000000000,49.0000000000
1717675204103,345.0000000000,227.0000000000,50.0000000000,134.0000000000,166.0000000000,49.0000000000
1717675204104,343.0000000000,225.0000000000,49.0000000000,133.0000000000,164.0000000000,48.0000000000
1717675204104,340.0000000000,224.0000000000,49.0000000000,131.0000000000,163.0000000000,49.0000000000
1717675204104,338.0000000000,222.0000000000,49.0000000000,131.0000000000,163.0000000000,48.0000000000
1717675204104,408.0000000000,221.0000000000,49.0000000000,130.0000000000,163.0000000000,48.0000000000
1717675204105,608.0000000000,220.0000000000,76.0000000000,129.0000000000,161.0000000000,48.0000000000
1717675204105,625.0000000000,217.0000000000,74.0000000000,127.0000000000,160.0000000000,47.0000000000
1717675204105,617.0000000000,216.0000000000,74.0000000000,127.0000000000,159.0000000000,47.0000000000
1717675204106,610.0000000000,215.0000000000,73.0000000000,127.0000000000,159.0000000000,47.0000000000
1717675204106,603.0000000000,214.0000000000,72.0000000000,126.0000000000,158.0000000000,47.0000000000
1717675204106,596.0000000000,211.0000000000,71.0000000000,125.0000000000,157.0000000000,46.0000000000
1717675204106,591.0000000000,263.0000000000,71.0000000000,124.0000000000,156.0000000000,46.0000000000
1717675204107,790.0000000000,322.0000000000,71.0000000000,124.0000000000,156.0000000000,46.0000000000
1717675204107,775.0000000000,318.0000000000,71.0000000000,123.0000000000,155.0000000000,46.0000000000
1717675204162,765.0000000000,315.0000000000,70.0000000000,121.0000000000,154.0000000000,45.0000000000
1717675204164,754.0000000000,312.0000000000,70.0000000000,120.0000000000,153.0000000000,44.0000000000
1717675204165,745.0000000000,310.0000000000,69.0000000000,120.0000000000,152.0000000000,44.0000000000
1717675204165,736.0000000000,307.0000000000,69.0000000000,119.0000000000,152.0000000000,44.0000000000
1717675204166,726.0000000000,304.0000000000,68.0000000000,119.0000000000,151.0000000000,44.0000000000
1717675204167,718.0000000000,302.0000000000,67.0000000000,118.0000000000,150.0000000000,43.0000000000
1717675204167,708.0000000000,300.0000000000,67.0000000000,117.0000000000,148.0000000000,44.0000000000
1717675204167,700.0000000000,297.0000000000,67.0000000000,116.0000000000,147.0000000000,43.0000000000
1717675204168,692.0000000000,295.0000000000,66.0000000000,115.0000000000,147.0000000000,43.0000000000
1717675204169,684.0000000000,294.0000000000,66.0000000000,115.0000000000,146.0000000000,43.0000000000
1717675204170,677.0000000000,291.0000000000,65.0000000000,114.0000000000,145.0000000000,41.0000000000
1717675204170,669.0000000000,289.0000000000,65.0000000000,113.0000000000,145.0000000000,41.0000000000
1717675204171,662.0000000000,287.0000000000,63.0000000000,112.0000000000,143.0000000000,41.0000000000
1717675204172,655.0000000000,285.0000000000,63.0000000000,112.0000000000,143.0000000000,41.0000000000
1717675204172,647.0000000000,284.0000000000,63.0000000000,111.0000000000,143.0000000000,41.0000000000
1717675204173,639.0000000000,281.0000000000,65.0000000000,110.0000000000,142.0000000000,41.0000000000
1717675204173,634.0000000000,280.0000000000,64.0000000000,109.0000000000,141.0000000000,40.0000000000
1717675204174,627.0000000000,277.0000000000,64.0000000000,112.0000000000,140.0000000000,39.0000000000
1717675204174,620.0000000000,275.0000000000,63.0000000000,112.0000000000,140.0000000000,39.0000000000
1717675204175,615.0000000000,273.0000000000,63.0000000000,111.0000000000,139.0000000000,39.0000000000
1717675204175,608.0000000000,271.0000000000,63.0000000000,110.0000000000,137.0000000000,39.0000000000
1717675204176,603.0000000000,270.0000000000,63.0000000000,110.0000000000,135.0000000000,39.0000000000
1717675204176,596.0000000000,268.0000000000,62.0000000000,109.0000000000,135.0000000000,39.0000000000
1717675204176,591.0000000000,267.0000000000,62.0000000000,108.0000000000,135.0000000000,39.0000000000
1717675204177,585.0000000000,263.0000000000,61.0000000000,107.0000000000,135.0000000000,39.0000000000
1717675204177,579.0000000000,263.0000000000,61.0000000000,107.0000000000,134.0000000000,39.0000000000
1717675204177,574.0000000000,261.0000000000,60.0000000000,106.0000000000,134.0000000000,38.0000000000
1717675204177,568.0000000000,259.0000000000,60.0000000000,105.0000000000,132.0000000000,38.0000000000
1717675204178,563.0000000000,257.0000000000,60.0000000000,104.0000000000,131.0000000000,38.0000000000
1717675204178,557.0000000000,255.0000000000,60.0000000000,103.0000000000,131.0000000000,37.0000000000
1717675204178,552.0000000000,254.0000000000,60.0000000000,103.0000000000,130.0000000000,37.0000000000
1717675204178,547.0000000000,252.0000000000,59.0000000000,150.0000000000,129.0000000000,36.0000000000
1717675204178,543.0000000000,251.0000000000,59.0000000000,148.0000000000,172.0000000000,36.0000000000
1717675204178,537.0000000000,248.0000000000,57.0000000000,147.0000000000,170.0000000000,36.0000000000
1717675204178,532.0000000000,248.0000000000,57.0000000000,146.0000000000,169.0000000000,35.0000000000
1717675204178,528.0000000000,246.0000000000,57.0000000000,145.0000000000,167.0000000000,35.0000000000
1717675204194,524.0000000000,243.0000000000,56.0000000000,143.0000000000,167.0000000000,35.0000000000
1717675204195,519.0000000000,243.0000000000,56.0000000000,143.0000000000,165.0000000000,35.0000000000
1717675204195,514.0000000000,241.0000000000,56.0000000000,142.0000000000,164.0000000000,35.0000000000
1717675204195,510.0000000000,240.0000000000,56.0000000000,141.0000000000,163.0000000000,35.0000000000
1717675204196,505.0000000000,238.0000000000,56.0000000000,140.0000000000,161.0000000000,35.0000000000
1717675204196,515.0000000000,237.0000000000,56.0000000000,139.0000000000,161.0000000000,35.0000000000
1717675204196,548.0000000000,236.0000000000,55.0000000000,137.0000000000,159.0000000000,34.0000000000
1717675204196,543.0000000000,233.0000000000,54.0000000000,137.0000000000,159.0000000000,34.0000000000
1717675204197,537.0000000000,231.0000000000,54.0000000000,135.0000000000,158.0000000000,33.0000000000
1717675204197,531.0000000000,231.0000000000,54.0000000000,135.0000000000,156.0000000000,33.0000000000
1717675204217,527.0000000000,229.0000000000,54.0000000000,134.0000000000,156.0000000000,33.0000000000
1717675204218,521.0000000000,227.0000000000,52.0000000000,134.0000000000,154.0000000000,33.0000000000
1717675204218,515.0000000000,226.0000000000,52.0000000000,132.0000000000,153.0000000000,33.0000000000
1717675204218,511.0000000000,225.0000000000,52.0000000000,177.0000000000,152.0000000000,33.0000000000
1717675204218,505.0000000000,224.0000000000,51.0000000000,179.0000000000,152.0000000000,32.0000000000
1717675204219,501.0000000000,223.0000000000,51.0000000000,179.0000000000,151.0000000000,32.0000000000
1717675204219,496.0000000000,221.0000000000,51.0000000000,176.0000000000,150.0000000000,31.0000000000
1717675204219,492.0000000000,220.0000000000,51.0000000000,176.0000000000,148.0000000000,31.0000000000
1717675204220,487.0000000000,219.0000000000,51.0000000000,174.0000000000,147.0000000000,31.0000000000
1717675204220,484.0000000000,216.0000000000,50.0000000000,172.0000000000,147.0000000000,31.0000000000
1717675204220,480.0000000000,216.0000000000,50.0000000000,172.0000000000,146.0000000000,31.0000000000
1717675204248,476.0000000000,214.0000000000,49.0000000000,171.0000000000,159.0000000000,31.0000000000
1717675204249,473.0000000000,213.0000000000,49.0000000000,169.0000000000,157.0000000000,31.0000000000
1717675204249,469.0000000000,211.0000000000,49.0000000000,167.0000000000,156.0000000000,31.0000000000
1717675204250,465.0000000000,210.0000000000,49.0000000000,167.0000000000,155.0000000000,30.0000000000
1717675204250,461.0000000000,209.0000000000,48.0000000000,166.0000000000,153.0000000000,30.0000000000
1717675204250,457.0000000000,207.0000000000,48.0000000000,164.0000000000,245.0000000000,30.0000000000
1717675204250,455.0000000000,207.0000000000,48.0000000000,163.0000000000,242.0000000000,30.0000000000
1717675204250,451.0000000000,206.0000000000,48.0000000000,163.0000000000,240.0000000000,30.0000000000
1717675204250,448.0000000000,204.0000000000,47.0000000000,161.0000000000,238.0000000000,30.0000000000
1717675204250,444.0000000000,203.0000000000,47.0000000000,159.0000000000,236.0000000000,29.0000000000
1717675204251,440.0000000000,217.0000000000,47.0000000000,159.0000000000,234.0000000000,30.0000000000
1717675204251,437.0000000000,216.0000000000,46.0000000000,158.0000000000,231.0000000000,29.0000000000
1717675204251,433.0000000000,214.0000000000,46.0000000000,157.0000000000,231.0000000000,29.0000000000
1717675204251,430.0000000000,212.0000000000,45.0000000000,156.0000000000,229.0000000000,29.0000000000
1717675204251,427.0000000000,210.0000000000,46.0000000000,155.0000000000,227.0000000000,28.0000000000
1717675204251,423.0000000000,208.0000000000,45.0000000000,154.0000000000,226.0000000000,28.0000000000
1717675204268,420.0000000000,207.0000000000,45.0000000000,153.0000000000,224.0000000000,28.0000000000
1717675204269,417.0000000000,206.0000000000,44.0000000000,152.0000000000,223.0000000000,28.0000000000
1717675204269,414.0000000000,204.0000000000,44.0000000000,151.0000000000,222.0000000000,28.0000000000
1717675204269,411.0000000000,203.0000000000,44.0000000000,150.0000000000,220.0000000000,28.0000000000
1717675204270,408.0000000000,202.0000000000,44.0000000000,151.0000000000,219.0000000000,27.0000000000
1717675204270,405.0000000000,199.0000000000,44.0000000000,150.0000000000,217.0000000000,27.0000000000
1717675204270,402.0000000000,199.0000000000,44.0000000000,148.0000000000,216.0000000000,27.0000000000
1717675204270,399.0000000000,198.0000000000,43.0000000000,147.0000000000,214.0000000000,27.0000000000
1717675204270,396.0000000000,198.0000000000,43.0000000000,147.0000000000,212.0000000000,27.0000000000
1717675204271,393.0000000000,195.0000000000,43.0000000000,146.0000000000,211.0000000000,27.0000000000
1717675204271,391.0000000000,195.0000000000,42.0000000000,145.0000000000,210.0000000000,27.0000000000
1717675204287,388.0000000000,193.0000000000,61.0000000000,143.0000000000,209.0000000000,27.0000000000
1717675204287,385.0000000000,192.0000000000,61.0000000000,143.0000000000,207.0000000000,26.0000000000
1717675204288,382.0000000000,192.0000000000,60.0000000000,142.0000000000,206.0000000000,25.0000000000
1717675204288,380.0000000000,191.0000000000,60.0000000000,142.0000000000,205.0000000000,26.0000000000
1717675204288,377.0000000000,188.0000000000,59.0000000000,140.0000000000,204.0000000000,26.0000000000
1717675204288,375.0000000000,188.0000000000,59.0000000000,140.0000000000,202.0000000000,25.0000000000
1717675204288,371.0000000000,187.0000000000,58.0000000000,139.0000000000,199.0000000000,25.0000000000
1717675204288,369.0000000000,215.0000000000,58.0000000000,137.0000000000,199.0000000000,25.0000000000
1717675204305,367.0000000000,212.0000000000,58.0000000000,137.0000000000,198.0000000000,25.0000000000
1717675204305,364.0000000000,211.0000000000,57.0000000000,135.0000000000,197.0000000000,25.0000000000
1717675204306,362.0000000000,209.0000000000,57.0000000000,135.0000000000,195.0000000000,25.0000000000
1717675204306,359.0000000000,207.0000000000,56.0000000000,135.0000000000,194.0000000000,24.0000000000
1717675204306,357.0000000000,207.0000000000,56.0000000000,134.0000000000,193.0000000000,24.0000000000
1717675204306,355.0000000000,205.0000000000,56.0000000000,132.0000000000,192.0000000000,24.0000000000
1717675204306,352.0000000000,204.0000000000,56.0000000000,131.0000000000,191.0000000000,24.0000000000
1717675204306,350.0000000000,202.0000000000,55.0000000000,131.0000000000,190.0000000000,24.0000000000
1717675204306,348.0000000000,200.0000000000,54.0000000000,131.0000000000,189.0000000000,24.0000000000
1717675204324,345.0000000000,199.0000000000,54.0000000000,129.0000000000,188.0000000000,24.0000000000
1717675204324,343.0000000000,198.0000000000,54.0000000000,127.0000000000,187.0000000000,24.0000000000
1717675204325,340.0000000000,196.0000000000,54.0000000000,127.0000000000,185.0000000000,24.0000000000
1717675204325,338.0000000000,195.0000000000,54.0000000000,127.0000000000,184.0000000000,24.0000000000
1717675204325,335.0000000000,193.0000000000,52.0000000000,126.0000000000,183.0000000000,24.0000000000
1717675204325,334.0000000000,192.0000000000,52.0000000000,126.0000000000,182.0000000000,23.0000000000
1717675204325,332.0000000000,191.0000000000,51.0000000000,124.0000000000,180.0000000000,23.0000000000
1717675204325,329.0000000000,190.0000000000,51.0000000000,124.0000000000,179.0000000000,23.0000000000
1717675204326,327.0000000000,189.0000000000,51.0000000000,156.0000000000,178.0000000000,23.0000000000
1717675204326,326.0000000000,188.0000000000,51.0000000000,154.0000000000,177.0000000000,76.0000000000
1717675204352,323.0000000000,187.0000000000,51.0000000000,152.0000000000,176.0000000000,76.0000000000
1717675204353,321.0000000000,185.0000000000,51.0000000000,152.0000000000,175.0000000000,75.0000000000
1717675204353,319.0000000000,184.0000000000,50.0000000000,151.0000000000,175.0000000000,74.0000000000
1717675204353,317.0000000000,184.0000000000,49.0000000000,150.0000000000,173.0000000000,73.0000000000
1717675204353,316.0000000000,182.0000000000,49.0000000000,148.0000000000,187.0000000000,72.0000000000
1717675204353,313.0000000000,181.0000000000,49.0000000000,147.0000000000,185.0000000000,71.0000000000
1717675204353,312.0000000000,179.0000000000,49.0000000000,146.0000000000,184.0000000000,71.0000000000
1717675204354,310.0000000000,179.0000000000,48.0000000000,145.0000000000,183.0000000000,71.0000000000
1717675204354,307.0000000000,178.0000000000,48.0000000000,143.0000000000,182.0000000000,71.0000000000
1717675204354,305.0000000000,176.0000000000,48.0000000000,143.0000000000,180.0000000000,71.0000000000
1717675204354,304.0000000000,176.0000000000,48.0000000000,142.0000000000,179.0000000000,70.0000000000
1717675204355,302.0000000000,175.0000000000,48.0000000000,142.0000000000,177.0000000000,70.0000000000
1717675204355,300.0000000000,174.0000000000,47.0000000000,140.0000000000,176.0000000000,68.0000000000
1717675204355,297.0000000000,173.0000000000,47.0000000000,140.0000000000,175.0000000000,68.0000000000
1717675204355,295.0000000000,240.0000000000,47.0000000000,139.0000000000,174.0000000000,67.0000000000
1717675204376,294.0000000000,236.0000000000,46.0000000000,137.0000000000,174.0000000000,67.0000000000
1717675204377,292.0000000000,235.0000000000,46.0000000000,137.0000000000,252.0000000000,67.0000000000
1717675204377,291.0000000000,232.0000000000,45.0000000000,135.0000000000,250.0000000000,67.0000000000
1717675204378,309.0000000000,231.0000000000,46.0000000000,135.0000000000,248.0000000000,66.0000000000
1717675204378,494.0000000000,229.0000000000,44.0000000000,134.0000000000,246.0000000000,65.0000000000
1717675204378,497.0000000000,227.0000000000,44.0000000000,133.0000000000,244.0000000000,65.0000000000
1717675204378,492.0000000000,225.0000000000,44.0000000000,132.0000000000,242.0000000000,65.0000000000
1717675204379,487.0000000000,224.0000000000,44.0000000000,131.0000000000,240.0000000000,64.0000000000
1717675204379,483.0000000000,223.0000000000,44.0000000000,131.0000000000,238.0000000000,63.0000000000
1717675204379,478.0000000000,221.0000000000,44.0000000000,130.0000000000,237.0000000000,63.0000000000
1717675204380,473.0000000000,219.0000000000,44.0000000000,129.0000000000,235.0000000000,63.0000000000
1717675204380,469.0000000000,219.0000000000,43.0000000000,127.0000000000,233.0000000000,63.0000000000
1717675204405,465.0000000000,216.0000000000,43.0000000000,127.0000000000,231.0000000000,62.0000000000
1717675204406,460.0000000000,215.0000000000,42.0000000000,127.0000000000,230.0000000000,62.0000000000
1717675204407,455.0000000000,214.0000000000,41.0000000000,125.0000000000,228.0000000000,62.0000000000
1717675204407,452.0000000000,212.0000000000,41.0000000000,125.0000000000,227.0000000000,61.0000000000
1717675204407,448.0000000000,211.0000000000,41.0000000000,124.0000000000,225.0000000000,60.0000000000
1717675204408,444.0000000000,209.0000000000,41.0000000000,123.0000000000,224.0000000000,60.0000000000
1717675204408,440.0000000000,207.0000000000,41.0000000000,122.0000000000,223.0000000000,60.0000000000
1717675204408,436.0000000000,206.0000000000,40.0000000000,121.0000000000,222.0000000000,60.0000000000
1717675204409,433.0000000000,205.0000000000,39.0000000000,121.0000000000,220.0000000000,59.0000000000
1717675204409,430.0000000000,204.0000000000,39.0000000000,120.0000000000,219.0000000000,59.0000000000
1717675204410,425.0000000000,203.0000000000,39.0000000000,120.0000000000,216.0000000000,58.0000000000
1717675204410,422.0000000000,200.0000000000,39.0000000000,119.0000000000,216.0000000000,57.0000000000
1717675204411,419.0000000000,199.0000000000,39.0000000000,118.0000000000,214.0000000000,57.0000000000
1717675204412,415.0000000000,199.0000000000,39.0000000000,118.0000000000,212.0000000000,57.0000000000
1717675204412,412.0000000000,197.0000000000,39.0000000000,116.0000000000,215.0000000000,57.0000000000
1717675204412,408.0000000000,195.0000000000,39.0000000000,115.0000000000,212.0000000000,56.0000000000
1717675204413,405.0000000000,195.0000000000,39.0000000000,115.0000000000,211.0000000000,56.0000000000
1717675204433,401.0000000000,193.0000000000,38.0000000000,115.0000000000,209.0000000000,56.0000000000
1717675204435,420.0000000000,192.0000000000,38.0000000000,113.0000000000,209.0000000000,56.0000000000
1717675204436,425.0000000000,191.0000000000,39.0000000000,113.0000000000,207.0000000000,55.0000000000
1717675204437,422.0000000000,190.0000000000,47.0000000000,112.0000000000,206.0000000000,54.0000000000
1717675204437,418.0000000000,188.0000000000,47.0000000000,112.0000000000,204.0000000000,54.0000000000
1717675204438,414.0000000000,188.0000000000,47.0000000000,111.0000000000,204.0000000000,54.0000000000
1717675204438,411.0000000000,186.0000000000,46.0000000000,110.0000000000,202.0000000000,54.0000000000
1717675204438,407.0000000000,184.0000000000,46.0000000000,110.0000000000,199.0000000000,54.0000000000
1717675204439,403.0000000000,195.0000000000,46.0000000000,109.0000000000,199.0000000000,52.0000000000
1717675204439,399.0000000000,194.0000000000,45.0000000000,108.0000000000,198.0000000000,52.0000000000
1717675204440,396.0000000000,193.0000000000,45.0000000000,108.0000000000,196.0000000000,52.0000000000
1717675204440,393.0000000000,192.0000000000,44.0000000000,180.0000000000,195.0000000000,51.0000000000
1717675204441,391.0000000000,191.0000000000,44.0000000000,178.0000000000,195.0000000000,51.0000000000
1717675204441,387.0000000000,189.0000000000,44.0000000000,176.0000000000,193.0000000000,51.0000000000
