timestamp,Channel 1,Channel 2,Channel 3,Channel 4,Channel 5,Channel 6
1717675341411,7.0000000000,0.0000000000,0.0000000000,51.0000000000,56.0000000000,3.0000000000
1717675341413,7.0000000000,0.0000000000,0.0000000000,51.0000000000,56.0000000000,4.0000000000
1717675341414,7.0000000000,0.0000000000,0.0000000000,51.0000000000,56.0000000000,3.0000000000
1717675341415,7.0000000000,0.0000000000,0.0000000000,51.0000000000,56.0000000000,3.0000000000
1717675341415,7.0000000000,0.0000000000,0.0000000000,50.0000000000,56.0000000000,3.0000000000
1717675341416,7.0000000000,0.0000000000,0.0000000000,50.0000000000,55.0000000000,4.0000000000
1717675341416,7.0000000000,0.0000000000,0.0000000000,49.0000000000,54.0000000000,3.0000000000
1717675341416,7.0000000000,0.0000000000,0.0000000000,49.0000000000,55.0000000000,3.0000000000
1717675341417,7.0000000000,0.0000000000,0.0000000000,49.0000000000,54.0000000000,3.0000000000
1717675341417,7.0000000000,0.0000000000,0.0000000000,49.0000000000,54.0000000000,3.0000000000
1717675341418,7.0000000000,0.0000000000,0.0000000000,49.0000000000,53.0000000000,3.0000000000
1717675341418,7.0000000000,0.0000000000,0.0000000000,48.0000000000,54.0000000000,3.0000000000
1717675341418,7.0000000000,0.0000000000,0.0000000000,48.0000000000,53.0000000000,3.0000000000
1717675341419,7.0000000000,0.0000000000,0.0000000000,48.0000000000,52.0000000000,3.0000000000
1717675341419,7.0000000000,0.0000000000,0.0000000000,48.0000000000,52.0000000000,3.0000000000
1717675341419,7.0000000000,0.0000000000,0.0000000000,48.0000000000,52.0000000000,3.0000000000
1717675341420,7.0000000000,0.0000000000,0.0000000000,47.0000000000,52.0000000000,3.0000000000
1717675341420,7.0000000000,0.0000000000,0.0000000000,48.0000000000,52.0000000000,3.0000000000
1717675341420,7.0000000000,0.0000000000,0.0000000000,47.0000000000,51.0000000000,3.0000000000
1717675341421,7.0000000000,0.0000000000,0.0000000000,47.0000000000,51.0000000000,3.0000000000
1717675341421,7.0000000000,0.0000000000,0.0000000000,47.0000000000,51.0000000000,3.0000000000
1717675341421,7.0000000000,0.0000000000,0.0000000000,46.0000000000,51.0000000000,3.0000000000
1717675341421,7.0000000000,0.0000000000,0.0000000000,46.0000000000,50.0000000000,3.0000000000
1717675341422,7.0000000000,0.0000000000,0.0000000000,46.0000000000,51.0000000000,3.0000000000
1717675341423,7.0000000000,0.0000000000,0.0000000000,46.0000000000,50.0000000000,3.0000000000
1717675341423,7.0000000000,0.0000000000,0.0000000000,46.0000000000,50.0000000000,3.0000000000
1717675341423,7.0000000000,0.0000000000,0.0000000000,45.0000000000,50.0000000000,3.0000000000
1717675341424,7.0000000000,0.0000000000,0.0000000000,45.0000000000,49.0000000000,3.0000000000
1717675341424,7.0000000000,0.0000000000,0.0000000000,45.0000000000,50.0000000000,3.0000000000
1717675341424,7.0000000000,0.0000000000,0.0000000000,45.0000000000,49.0000000000,3.0000000000
1717675341425,7.0000000000,0.0000000000,0.0000000000,45.0000000000,49.0000000000,3.0000000000
1717675341425,7.0000000000,0.0000000000,0.0000000000,44.0000000000,49.0000000000,3.0000000000
1717675341425,7.0000000000,0.0000000000,0.0000000000,44.0000000000,49.0000000000,3.0000000000
1717675341460,7.0000000000,0.0000000000,0.0000000000,44.0000000000,48.0000000000,3.0000000000
1717675341461,7.0000000000,0.0000000000,0.0000000000,44.0000000000,48.0000000000,3.0000000000
1717675341461,7.0000000000,0.0000000000,0.0000000000,44.0000000000,48.0000000000,3.0000000000
1717675341461,7.0000000000,0.0000000000,0.0000000000,44.0000000000,48.0000000000,3.0000000000
1717675341461,7.0000000000,0.0000000000,0.0000000000,44.0000000000,47.0000000000,3.0000000000
1717675341461,7.0000000000,0.0000000000,0.0000000000,44.0000000000,47.0000000000,3.0000000000
1717675341461,7.0000000000,0.0000000000,0.0000000000,43.0000000000,48.0000000000,3.0000000000
1717675341461,7.0000000000,0.0000000000,0.0000000000,43.0000000000,47.0000000000,3.0000000000
1717675341462,7.0000000000,0.0000000000,0.0000000000,43.0000000000,47.0000000000,3.0000000000
1717675341462,7.0000000000,0.0000000000,0.0000000000,43.0000000000,47.0000000000,3.0000000000
1717675341462,7.0000000000,0.0000000000,0.0000000000,43.0000000000,47.0000000000,3.0000000000
1717675341462,7.0000000000,0.0000000000,0.0000000000,43.0000000000,46.0000000000,3.0000000000
1717675341462,7.0000000000,0.0000000000,0.0000000000,42.0000000000,46.0000000000,3.0000000000
1717675341462,7.0000000000,0.0000000000,0.0000000000,42.0000000000,46.0000000000,2.0000000000
1717675341462,7.0000000000,0.0000000000,0.0000000000,41.0000000000,46.0000000000,3.0000000000
1717675341462,7.0000000000,0.0000000000,0.0000000000,41.0000000000,46.0000000000,2.0000000000
1717675341462,7.0000000000,0.0000000000,0.0000000000,41.0000000000,46.0000000000,3.0000000000
1717675341462,7.0000000000,0.0000000000,0.0000000000,41.0000000000,45.0000000000,2.0000000000
1717675341462,7.0000000000,0.0000000000,0.0000000000,41.0000000000,44.0000000000,2.0000000000
1717675341463,7.0000000000,0.0000000000,0.0000000000,39.0000000000,44.0000000000,3.0000000000
1717675341463,7.0000000000,0.0000000000,0.0000000000,39.0000000000,44.0000000000,2.0000000000
1717675341463,7.0000000000,0.0000000000,0.0000000000,40.0000000000,44.0000000000,2.0000000000
1717675341463,7.0000000000,0.0000000000,0.0000000000,39.0000000000,44.0000000000,3.0000000000
1717675341463,7.0000000000,0.0000000000,0.0000000000,39.0000000000,44.0000000000,2.0000000000
1717675341463,7.0000000000,0.0000000000,0.0000000000,39.0000000000,44.0000000000,2.0000000000
1717675341463,7.0000000000,0.0000000000,0.0000000000,39.0000000000,44.0000000000,3.0000000000
1717675341463,7.0000000000,0.0000000000,0.0000000000,39.0000000000,44.0000000000,3.0000000000
1717675341463,7.0000000000,0.0000000000,0.0000000000,39.0000000000,43.0000000000,3.0000000000
1717675341464,7.0000000000,0.0000000000,0.0000000000,39.0000000000,43.0000000000,2.0000000000
1717675341464,7.0000000000,0.0000000000,0.0000000000,39.0000000000,43.0000000000,3.0000000000
1717675341464,7.0000000000,0.0000000000,0.0000000000,39.0000000000,43.0000000000,3.0000000000
1717675341464,7.0000000000,0.0000000000,0.0000000000,39.0000000000,43.0000000000,2.0000000000
1717675341477,7.0000000000,0.0000000000,0.0000000000,39.0000000000,43.0000000000,2.0000000000
1717675341478,7.0000000000,0.0000000000,0.0000000000,38.0000000000,41.0000000000,2.0000000000
1717675341478,7.0000000000,0.0000000000,0.0000000000,39.0000000000,42.0000000000,2.0000000000
1717675341478,7.0000000000,0.0000000000,0.0000000000,116.0000000000,41.0000000000,2.0000000000
1717675341478,7.0000000000,0.0000000000,0.0000000000,155.0000000000,41.0000000000,2.0000000000
1717675341479,7.0000000000,0.0000000000,0.0000000000,152.0000000000,41.0000000000,2.0000000000
1717675341479,7.0000000000,0.0000000000,0.0000000000,151.0000000000,41.0000000000,2.0000000000
1717675341479,7.0000000000,0.0000000000,0.0000000000,151.0000000000,40.0000000000,1.0000000000
1717675341479,7.0000000000,0.0000000000,0.0000000000,150.0000000000,41.0000000000,2.0000000000
1717675341504,7.0000000000,0.0000000000,0.0000000000,148.0000000000,39.0000000000,2.0000000000
1717675341505,7.0000000000,0.0000000000,0.0000000000,147.0000000000,39.0000000000,2.0000000000
1717675341506,7.0000000000,0.0000000000,0.0000000000,147.0000000000,39.0000000000,2.0000000000
1717675341506,7.0000000000,0.0000000000,0.0000000000,146.0000000000,39.0000000000,2.0000000000
1717675341506,7.0000000000,0.0000000000,0.0000000000,145.0000000000,39.0000000000,2.0000000000
1717675341506,7.0000000000,0.0000000000,0.0000000000,145.0000000000,39.0000000000,1.0000000000
1717675341507,7.0000000000,0.0000000000,0.0000000000,144.0000000000,39.0000000000,2.0000000000
1717675341507,7.0000000000,0.0000000000,0.0000000000,143.0000000000,39.0000000000,2.0000000000
1717675341507,7.0000000000,0.0000000000,0.0000000000,143.0000000000,39.0000000000,1.0000000000
1717675341507,7.0000000000,0.0000000000,0.0000000000,142.0000000000,39.0000000000,2.0000000000
1717675341508,7.0000000000,0.0000000000,0.0000000000,141.0000000000,39.0000000000,2.0000000000
1717675341508,7.0000000000,0.0000000000,0.0000000000,141.0000000000,39.0000000000,1.0000000000
1717675341508,7.0000000000,0.0000000000,2.0000000000,140.0000000000,39.0000000000,2.0000000000
1717675341508,7.0000000000,0.0000000000,3.0000000000,139.0000000000,39.0000000000,2.0000000000
1717675341508,7.0000000000,0.0000000000,3.0000000000,139.0000000000,39.0000000000,2.0000000000
1717675341509,7.0000000000,0.0000000000,3.0000000000,137.0000000000,38.0000000000,2.0000000000
1717675341509,7.0000000000,0.0000000000,3.0000000000,137.0000000000,38.0000000000,1.0000000000
1717675341509,7.0000000000,0.0000000000,2.0000000000,136.0000000000,38.0000000000,2.0000000000
1717675341510,7.0000000000,0.0000000000,2.0000000000,135.0000000000,38.0000000000,1.0000000000
1717675341510,7.0000000000,0.0000000000,2.0000000000,135.0000000000,38.0000000000,2.0000000000
1717675341511,7.0000000000,0.0000000000,3.0000000000,135.0000000000,37.0000000000,1.0000000000
1717675341511,7.0000000000,0.0000000000,2.0000000000,134.0000000000,36.0000000000,1.0000000000
1717675341511,7.0000000000,0.0000000000,2.0000000000,133.0000000000,36.0000000000,2.0000000000
1717675341511,7.0000000000,0.0000000000,2.0000000000,132.0000000000,37.0000000000,1.0000000000
1717675341538,7.0000000000,0.0000000000,2.0000000000,132.0000000000,36.0000000000,2.0000000000
1717675341538,7.0000000000,0.0000000000,2.0000000000,131.0000000000,36.0000000000,1.0000000000
1717675341538,7.0000000000,0.0000000000,2.0000000000,131.0000000000,36.0000000000,1.0000000000
1717675341538,7.0000000000,0.0000000000,2.0000000000,130.0000000000,36.0000000000,1.0000000000
1717675341538,6.0000000000,0.0000000000,2.0000000000,129.0000000000,35.0000000000,1.0000000000
1717675341539,7.0000000000,0.0000000000,3.0000000000,129.0000000000,35.0000000000,1.0000000000
1717675341539,7.0000000000,0.0000000000,3.0000000000,128.0000000000,35.0000000000,1.0000000000
1717675341539,7.0000000000,0.0000000000,3.0000000000,127.0000000000,35.0000000000,1.0000000000
1717675341539,6.0000000000,0.0000000000,3.0000000000,127.0000000000,35.0000000000,1.0000000000
1717675341539,7.0000000000,0.0000000000,3.0000000000,127.0000000000,35.0000000000,1.0000000000
1717675341539,7.0000000000,0.0000000000,3.0000000000,126.0000000000,35.0000000000,1.0000000000
1717675341539,7.0000000000,0.0000000000,3.0000000000,125.0000000000,35.0000000000,1.0000000000
1717675341539,7.0000000000,0.0000000000,3.0000000000,125.0000000000,35.0000000000,1.0000000000
1717675341539,7.0000000000,0.0000000000,3.0000000000,124.0000000000,34.0000000000,1.0000000000
1717675341539,7.0000000000,0.0000000000,3.0000000000,124.0000000000,34.0000000000,1.0000000000
1717675341539,7.0000000000,0.0000000000,2.0000000000,123.0000000000,34.0000000000,1.0000000000
1717675341540,7.0000000000,0.0000000000,3.0000000000,123.0000000000,34.0000000000,1.0000000000
1717675341540,7.0000000000,0.0000000000,3.0000000000,122.0000000000,34.0000000000,1.0000000000
1717675341540,7.0000000000,0.0000000000,3.0000000000,121.0000000000,33.0000000000,1.0000000000
1717675341540,7.0000000000,0.0000000000,3.0000000000,121.0000000000,33.0000000000,1.0000000000
1717675341540,7.0000000000,0.0000000000,3.0000000000,120.0000000000,34.0000000000,2.0000000000
1717675341562,7.0000000000,0.0000000000,3.0000000000,120.0000000000,33.0000000000,1.0000000000
1717675341563,7.0000000000,0.0000000000,3.0000000000,120.0000000000,33.0000000000,1.0000000000
1717675341563,7.0000000000,0.0000000000,3.0000000000,119.0000000000,33.0000000000,1.0000000000
1717675341563,7.0000000000,0.0000000000,3.0000000000,119.0000000000,33.0000000000,1.0000000000
1717675341563,7.0000000000,0.0000000000,3.0000000000,118.0000000000,32.0000000000,1.0000000000
1717675341563,7.0000000000,0.0000000000,3.0000000000,118.0000000000,32.0000000000,1.0000000000
1717675341563,7.0000000000,0.0000000000,2.0000000000,117.0000000000,32.0000000000,1.0000000000
1717675341564,7.0000000000,0.0000000000,3.0000000000,116.0000000000,32.0000000000,1.0000000000
1717675341564,7.0000000000,0.0000000000,2.0000000000,115.0000000000,32.0000000000,2.0000000000
1717675341564,7.0000000000,0.0000000000,3.0000000000,115.0000000000,32.0000000000,1.0000000000
1717675341564,7.0000000000,0.0000000000,2.0000000000,115.0000000000,31.0000000000,2.0000000000
1717675341564,7.0000000000,0.0000000000,3.0000000000,115.0000000000,31.0000000000,1.0000000000
1717675341564,7.0000000000,0.0000000000,3.0000000000,113.0000000000,31.0000000000,1.0000000000
1717675341564,7.0000000000,0.0000000000,2.0000000000,113.0000000000,31.0000000000,1.0000000000
1717675341565,7.0000000000,0.0000000000,3.0000000000,113.0000000000,31.0000000000,2.0000000000
1717675341565,7.0000000000,0.0000000000,3.0000000000,112.0000000000,31.0000000000,1.0000000000
1717675341565,7.0000000000,0.0000000000,3.0000000000,112.0000000000,31.0000000000,1.0000000000
1717675341565,7.0000000000,0.0000000000,3.0000000000,112.0000000000,31.0000000000,1.0000000000
1717675341580,7.0000000000,0.0000000000,3.0000000000,111.0000000000,31.0000000000,1.0000000000
1717675341581,7.0000000000,0.0000000000,3.0000000000,110.0000000000,31.0000000000,1.0000000000
1717675341582,7.0000000000,0.0000000000,2.0000000000,110.0000000000,30.0000000000,1.0000000000
1717675341582,7.0000000000,0.0000000000,2.0000000000,110.0000000000,30.0000000000,1.0000000000
1717675341582,7.0000000000,0.0000000000,3.0000000000,110.0000000000,30.0000000000,1.0000000000
1717675341582,7.0000000000,0.0000000000,3.0000000000,112.0000000000,30.0000000000,1.0000000000
1717675341582,7.0000000000,0.0000000000,3.0000000000,112.0000000000,30.0000000000,1.0000000000
1717675341582,7.0000000000,0.0000000000,4.0000000000,111.0000000000,30.0000000000,1.0000000000
1717675341582,7.0000000000,0.0000000000,4.0000000000,110.0000000000,30.0000000000,1.0000000000
1717675341583,7.0000000000,0.0000000000,4.0000000000,110.0000000000,30.0000000000,1.0000000000
1717675341583,7.0000000000,0.0000000000,4.0000000000,109.0000000000,29.0000000000,1.0000000000
1717675341583,7.0000000000,0.0000000000,4.0000000000,108.0000000000,30.0000000000,1.0000000000
1717675341583,7.0000000000,0.0000000000,4.0000000000,108.0000000000,29.0000000000,1.0000000000
1717675341584,7.0000000000,0.0000000000,4.0000000000,108.0000000000,29.0000000000,1.0000000000
1717675341584,7.0000000000,0.0000000000,4.0000000000,107.0000000000,29.0000000000,1.0000000000
1717675341601,7.0000000000,0.0000000000,4.0000000000,107.0000000000,29.0000000000,1.0000000000
1717675341601,7.0000000000,0.0000000000,3.0000000000,107.0000000000,28.0000000000,1.0000000000
1717675341601,7.0000000000,0.0000000000,4.0000000000,106.0000000000,28.0000000000,1.0000000000
1717675341601,7.0000000000,0.0000000000,4.0000000000,105.0000000000,29.0000000000,1.0000000000
1717675341601,7.0000000000,0.0000000000,4.0000000000,104.0000000000,28.0000000000,1.0000000000
1717675341601,7.0000000000,0.0000000000,4.0000000000,103.0000000000,28.0000000000,1.0000000000
1717675341602,7.0000000000,0.0000000000,3.0000000000,104.0000000000,28.0000000000,1.0000000000
1717675341602,7.0000000000,0.0000000000,3.0000000000,103.0000000000,28.0000000000,1.0000000000
1717675341602,7.0000000000,0.0000000000,13.0000000000,103.0000000000,28.0000000000,0.0000000000
1717675341602,7.0000000000,0.0000000000,34.0000000000,103.0000000000,28.0000000000,1.0000000000
1717675341602,7.0000000000,0.0000000000,33.0000000000,103.0000000000,28.0000000000,1.0000000000
1717675341602,7.0000000000,0.0000000000,33.0000000000,102.0000000000,28.0000000000,1.0000000000
1717675341618,7.0000000000,0.0000000000,33.0000000000,101.0000000000,28.0000000000,1.0000000000
1717675341618,6.0000000000,0.0000000000,33.0000000000,161.0000000000,28.0000000000,1.0000000000
1717675341618,7.0000000000,0.0000000000,33.0000000000,161.0000000000,28.0000000000,1.0000000000
1717675341618,7.0000000000,0.0000000000,32.0000000000,160.0000000000,27.0000000000,1.0000000000
1717675341618,7.0000000000,0.0000000000,31.0000000000,159.0000000000,27.0000000000,1.0000000000
1717675341619,7.0000000000,0.0000000000,32.0000000000,159.0000000000,27.0000000000,1.0000000000
1717675341619,7.0000000000,0.0000000000,31.0000000000,158.0000000000,26.0000000000,1.0000000000
1717675341619,7.0000000000,0.0000000000,31.0000000000,177.0000000000,27.0000000000,0.0000000000
1717675341619,7.0000000000,0.0000000000,31.0000000000,176.0000000000,27.0000000000,1.0000000000
1717675341619,7.0000000000,0.0000000000,31.0000000000,175.0000000000,27.0000000000,0.0000000000
1717675341619,7.0000000000,0.0000000000,31.0000000000,174.0000000000,26.0000000000,1.0000000000
1717675341633,6.0000000000,0.0000000000,31.0000000000,172.0000000000,27.0000000000,1.0000000000
1717675341634,7.0000000000,0.0000000000,31.0000000000,172.0000000000,26.0000000000,0.0000000000
1717675341634,6.0000000000,0.0000000000,31.0000000000,171.0000000000,26.0000000000,1.0000000000
1717675341634,7.0000000000,0.0000000000,31.0000000000,170.0000000000,25.0000000000,0.0000000000
1717675341634,7.0000000000,0.0000000000,98.0000000000,169.0000000000,25.0000000000,1.0000000000
1717675341634,9.0000000000,0.0000000000,119.0000000000,167.0000000000,25.0000000000,1.0000000000
1717675341634,9.0000000000,0.0000000000,118.0000000000,236.0000000000,25.0000000000,0.0000000000
1717675341635,10.0000000000,0.0000000000,117.0000000000,233.0000000000,25.0000000000,0.0000000000
1717675341635,9.0000000000,0.0000000000,116.0000000000,231.0000000000,25.0000000000,0.0000000000
1717675341635,9.0000000000,0.0000000000,115.0000000000,230.0000000000,25.0000000000,1.0000000000
1717675341635,9.0000000000,0.0000000000,115.0000000000,262.0000000000,25.0000000000,0.0000000000
1717675341650,9.0000000000,0.0000000000,114.0000000000,271.0000000000,24.0000000000,1.0000000000
1717675341650,9.0000000000,0.0000000000,113.0000000000,269.0000000000,25.0000000000,0.0000000000
1717675341650,9.0000000000,0.0000000000,112.0000000000,267.0000000000,24.0000000000,0.0000000000
1717675341651,9.0000000000,0.0000000000,112.0000000000,265.0000000000,24.0000000000,1.0000000000
1717675341651,9.0000000000,0.0000000000,112.0000000000,263.0000000000,24.0000000000,0.0000000000
1717675341651,9.0000000000,0.0000000000,111.0000000000,262.0000000000,24.0000000000,1.0000000000
1717675341651,9.0000000000,0.0000000000,110.0000000000,260.0000000000,24.0000000000,1.0000000000
1717675341651,9.0000000000,0.0000000000,110.0000000000,259.0000000000,24.0000000000,0.0000000000
1717675341651,8.0000000000,0.0000000000,109.0000000000,257.0000000000,24.0000000000,0.0000000000
1717675341651,9.0000000000,0.0000000000,108.0000000000,255.0000000000,24.0000000000,0.0000000000
1717675341651,8.0000000000,0.0000000000,108.0000000000,254.0000000000,24.0000000000,1.0000000000
1717675341666,9.0000000000,0.0000000000,108.0000000000,253.0000000000,23.0000000000,1.0000000000
1717675341667,9.0000000000,0.0000000000,107.0000000000,251.0000000000,24.0000000000,0.0000000000
1717675341667,9.0000000000,0.0000000000,107.0000000000,250.0000000000,23.0000000000,0.0000000000
1717675341667,7.0000000000,0.0000000000,106.0000000000,248.0000000000,24.0000000000,0.0000000000
1717675341667,7.0000000000,0.0000000000,105.0000000000,248.0000000000,24.0000000000,0.0000000000
1717675341667,8.0000000000,0.0000000000,103.0000000000,246.0000000000,24.0000000000,0.0000000000
1717675341667,7.0000000000,0.0000000000,103.0000000000,244.0000000000,24.0000000000,1.0000000000
1717675341667,7.0000000000,0.0000000000,103.0000000000,243.0000000000,24.0000000000,0.0000000000
1717675341668,7.0000000000,0.0000000000,103.0000000000,242.0000000000,24.0000000000,0.0000000000
1717675341668,8.0000000000,0.0000000000,103.0000000000,240.0000000000,24.0000000000,0.0000000000
1717675341681,7.0000000000,0.0000000000,102.0000000000,239.0000000000,24.0000000000,0.0000000000
1717675341681,7.0000000000,0.0000000000,102.0000000000,238.0000000000,24.0000000000,1.0000000000
1717675341681,7.0000000000,0.0000000000,102.0000000000,236.0000000000,63.0000000000,0.0000000000
1717675341682,7.0000000000,0.0000000000,100.0000000000,236.0000000000,67.0000000000,0.0000000000
1717675341682,7.0000000000,0.0000000000,100.0000000000,234.0000000000,67.0000000000,0.0000000000
1717675341682,7.0000000000,0.0000000000,99.0000000000,233.0000000000,66.0000000000,0.0000000000
1717675341682,7.0000000000,0.0000000000,99.0000000000,231.0000000000,65.0000000000,0.0000000000
1717675341682,7.0000000000,0.0000000000,99.0000000000,231.0000000000,65.0000000000,0.0000000000
1717675341682,7.0000000000,0.0000000000,98.0000000000,230.0000000000,64.0000000000,0.0000000000
1717675341683,7.0000000000,0.0000000000,97.0000000000,228.0000000000,63.0000000000,0.0000000000
1717675341683,7.0000000000,0.0000000000,97.0000000000,227.0000000000,63.0000000000,0.0000000000
1717675341683,7.0000000000,0.0000000000,97.0000000000,226.0000000000,63.0000000000,0.0000000000
1717675341695,7.0000000000,0.0000000000,96.0000000000,254.0000000000,63.0000000000,0.0000000000
1717675341695,7.0000000000,0.0000000000,96.0000000000,252.0000000000,63.0000000000,0.0000000000
1717675341695,7.0000000000,0.0000000000,96.0000000000,250.0000000000,63.0000000000,0.0000000000
1717675341695,7.0000000000,0.0000000000,95.0000000000,248.0000000000,63.0000000000,0.0000000000
1717675341695,7.0000000000,0.0000000000,95.0000000000,248.0000000000,62.0000000000,0.0000000000
1717675341695,7.0000000000,0.0000000000,94.0000000000,246.0000000000,62.0000000000,0.0000000000
1717675341696,7.0000000000,0.0000000000,94.0000000000,244.0000000000,62.0000000000,0.0000000000
1717675341696,7.0000000000,0.0000000000,94.0000000000,243.0000000000,62.0000000000,0.0000000000
1717675341712,7.0000000000,0.0000000000,92.0000000000,242.0000000000,60.0000000000,0.0000000000
1717675341715,7.0000000000,0.0000000000,92.0000000000,240.0000000000,61.0000000000,0.0000000000
1717675341716,7.0000000000,0.0000000000,92.0000000000,240.0000000000,60.0000000000,0.0000000000
1717675341716,7.0000000000,0.0000000000,91.0000000000,238.0000000000,60.0000000000,0.0000000000
1717675341716,7.0000000000,0.0000000000,91.0000000000,306.0000000000,60.0000000000,0.0000000000
1717675341717,7.0000000000,0.0000000000,91.0000000000,421.0000000000,60.0000000000,0.0000000000
1717675341717,7.0000000000,0.0000000000,91.0000000000,422.0000000000,61.0000000000,0.0000000000
1717675341717,7.0000000000,0.0000000000,90.0000000000,417.0000000000,61.0000000000,0.0000000000
1717675341717,7.0000000000,0.0000000000,89.0000000000,415.0000000000,60.0000000000,0.0000000000
1717675341718,7.0000000000,0.0000000000,89.0000000000,412.0000000000,60.0000000000,0.0000000000
1717675341718,7.0000000000,0.0000000000,88.0000000000,409.0000000000,59.0000000000,0.0000000000
1717675341718,7.0000000000,0.0000000000,88.0000000000,407.0000000000,63.0000000000,0.0000000000
1717675341719,7.0000000000,0.0000000000,88.0000000000,403.0000000000,63.0000000000,0.0000000000
1717675341719,7.0000000000,0.0000000000,87.0000000000,401.0000000000,63.0000000000,0.0000000000
1717675341719,7.0000000000,0.0000000000,87.0000000000,398.0000000000,62.0000000000,0.0000000000
1717675341719,7.0000000000,0.0000000000,87.0000000000,396.0000000000,62.0000000000,0.0000000000
1717675341720,7.0000000000,0.0000000000,87.0000000000,393.0000000000,61.0000000000,0.0000000000
1717675341768,7.0000000000,0.0000000000,86.0000000000,391.0000000000,61.0000000000,0.0000000000
1717675341769,6.0000000000,0.0000000000,85.0000000000,388.0000000000,61.0000000000,4.0000000000
1717675341769,7.0000000000,0.0000000000,86.0000000000,387.0000000000,60.0000000000,7.0000000000
1717675341769,17.0000000000,0.0000000000,85.0000000000,384.0000000000,60.0000000000,7.0000000000
1717675341769,18.0000000000,0.0000000000,83.0000000000,380.0000000000,60.0000000000,7.0000000000
1717675341769,17.0000000000,0.0000000000,84.0000000000,379.0000000000,60.0000000000,7.0000000000
1717675341770,17.0000000000,0.0000000000,83.0000000000,376.0000000000,59.0000000000,7.0000000000
1717675341770,18.0000000000,0.0000000000,83.0000000000,374.0000000000,59.0000000000,7.0000000000
1717675341770,17.0000000000,0.0000000000,83.0000000000,371.0000000000,58.0000000000,7.0000000000
1717675341770,17.0000000000,0.0000000000,82.0000000000,369.0000000000,58.0000000000,7.0000000000
1717675341770,17.0000000000,0.0000000000,82.0000000000,368.0000000000,58.0000000000,6.0000000000
1717675341770,17.0000000000,0.0000000000,82.0000000000,365.0000000000,57.0000000000,7.0000000000
1717675341770,17.0000000000,0.0000000000,81.0000000000,363.0000000000,57.0000000000,6.0000000000
1717675341771,17.0000000000,0.0000000000,81.0000000000,361.0000000000,58.0000000000,6.0000000000
1717675341771,17.0000000000,0.0000000000,80.0000000000,359.0000000000,82.0000000000,7.0000000000
1717675341771,17.0000000000,0.0000000000,79.0000000000,356.0000000000,81.0000000000,7.0000000000
1717675341771,17.0000000000,0.0000000000,79.0000000000,355.0000000000,80.0000000000,7.0000000000
1717675341771,16.0000000000,0.0000000000,79.0000000000,357.0000000000,79.0000000000,7.0000000000
1717675341771,17.0000000000,0.0000000000,79.0000000000,355.0000000000,79.0000000000,6.0000000000
1717675341771,17.0000000000,0.0000000000,79.0000000000,353.0000000000,79.0000000000,7.0000000000
1717675341772,16.0000000000,1.0000000000,78.0000000000,351.0000000000,79.0000000000,7.0000000000
1717675341772,16.0000000000,7.0000000000,161.0000000000,418.0000000000,79.0000000000,6.0000000000
1717675341772,15.0000000000,31.0000000000,232.0000000000,414.0000000000,78.0000000000,6.0000000000
1717675341772,15.0000000000,31.0000000000,230.0000000000,409.0000000000,77.0000000000,6.0000000000
1717675341772,15.0000000000,31.0000000000,316.0000000000,408.0000000000,76.0000000000,6.0000000000
1717675341772,16.0000000000,46.0000000000,364.0000000000,423.0000000000,85.0000000000,6.0000000000
1717675341772,15.0000000000,46.0000000000,359.0000000000,462.0000000000,124.0000000000,7.0000000000
1717675341772,15.0000000000,45.0000000000,356.0000000000,457.0000000000,124.0000000000,7.0000000000
1717675341773,15.0000000000,83.0000000000,353.0000000000,454.0000000000,122.0000000000,7.0000000000
1717675341773,17.0000000000,83.0000000000,351.0000000000,453.0000000000,121.0000000000,7.0000000000
1717675341773,17.0000000000,82.0000000000,433.0000000000,451.0000000000,120.0000000000,7.0000000000
1717675341773,17.0000000000,81.0000000000,511.0000000000,446.0000000000,120.0000000000,7.0000000000
1717675341773,17.0000000000,81.0000000000,507.0000000000,442.0000000000,119.0000000000,7.0000000000
1717675341787,17.0000000000,80.0000000000,501.0000000000,440.0000000000,118.0000000000,7.0000000000
1717675341788,17.0000000000,79.0000000000,497.0000000000,435.0000000000,118.0000000000,7.0000000000
1717675341788,17.0000000000,79.0000000000,492.0000000000,432.0000000000,116.0000000000,7.0000000000
1717675341788,17.0000000000,78.0000000000,488.0000000000,428.0000000000,116.0000000000,7.0000000000
1717675341788,17.0000000000,78.0000000000,484.0000000000,423.0000000000,115.0000000000,7.0000000000
1717675341788,17.0000000000,77.0000000000,480.0000000000,422.0000000000,114.0000000000,7.0000000000
1717675341789,17.0000000000,77.0000000000,476.0000000000,418.0000000000,113.0000000000,7.0000000000
1717675341789,24.0000000000,76.0000000000,472.0000000000,415.0000000000,113.0000000000,7.0000000000
1717675341789,24.0000000000,76.0000000000,470.0000000000,412.0000000000,112.0000000000,7.0000000000
1717675341811,24.0000000000,76.0000000000,465.0000000000,408.0000000000,112.0000000000,7.0000000000
1717675341811,24.0000000000,75.0000000000,462.0000000000,443.0000000000,111.0000000000,7.0000000000
1717675341811,24.0000000000,75.0000000000,459.0000000000,439.0000000000,111.0000000000,6.0000000000
1717675341812,24.0000000000,74.0000000000,455.0000000000,435.0000000000,134.0000000000,7.0000000000
1717675341812,23.0000000000,73.0000000000,452.0000000000,431.0000000000,133.0000000000,7.0000000000
1717675341812,22.0000000000,73.0000000000,448.0000000000,428.0000000000,132.0000000000,7.0000000000
1717675341812,23.0000000000,73.0000000000,444.0000000000,423.0000000000,131.0000000000,7.0000000000
1717675341812,23.0000000000,72.0000000000,441.0000000000,420.0000000000,131.0000000000,7.0000000000
1717675341812,23.0000000000,71.0000000000,438.0000000000,417.0000000000,129.0000000000,7.0000000000
1717675341812,32.0000000000,71.0000000000,435.0000000000,414.0000000000,128.0000000000,7.0000000000
1717675341812,39.0000000000,71.0000000000,432.0000000000,412.0000000000,127.0000000000,7.0000000000
1717675341812,38.0000000000,70.0000000000,429.0000000000,408.0000000000,127.0000000000,7.0000000000
1717675341812,38.0000000000,70.0000000000,425.0000000000,404.0000000000,126.0000000000,7.0000000000
1717675341812,38.0000000000,69.0000000000,423.0000000000,402.0000000000,126.0000000000,7.0000000000
1717675341826,36.0000000000,70.0000000000,420.0000000000,399.0000000000,124.0000000000,7.0000000000
1717675341827,37.0000000000,68.0000000000,417.0000000000,396.0000000000,124.0000000000,7.0000000000
1717675341827,36.0000000000,68.0000000000,415.0000000000,392.0000000000,124.0000000000,7.0000000000
1717675341827,36.0000000000,68.0000000000,411.0000000000,390.0000000000,122.0000000000,7.0000000000
1717675341827,36.0000000000,67.0000000000,408.0000000000,387.0000000000,121.0000000000,7.0000000000
1717675341828,56.0000000000,67.0000000000,406.0000000000,384.0000000000,121.0000000000,7.0000000000
1717675341828,62.0000000000,67.0000000000,403.0000000000,383.0000000000,120.0000000000,7.0000000000
1717675341828,83.0000000000,67.0000000000,400.0000000000,379.0000000000,120.0000000000,8.0000000000
1717675341828,100.0000000000,66.0000000000,398.0000000000,376.0000000000,119.0000000000,7.0000000000
1717675341844,99.0000000000,65.0000000000,395.0000000000,375.0000000000,118.0000000000,7.0000000000
1717675341845,99.0000000000,65.0000000000,392.0000000000,505.0000000000,170.0000000000,7.0000000000
1717675341846,99.0000000000,77.0000000000,390.0000000000,499.0000000000,185.0000000000,7.0000000000
1717675341846,97.0000000000,76.0000000000,387.0000000000,494.0000000000,184.0000000000,7.0000000000
1717675341846,97.0000000000,75.0000000000,384.0000000000,488.0000000000,182.0000000000,7.0000000000
1717675341846,96.0000000000,75.0000000000,457.0000000000,485.0000000000,180.0000000000,7.0000000000
1717675341847,96.0000000000,75.0000000000,463.0000000000,551.0000000000,179.0000000000,7.0000000000
1717675341847,95.0000000000,73.0000000000,457.0000000000,546.0000000000,179.0000000000,7.0000000000
1717675341847,94.0000000000,73.0000000000,455.0000000000,540.0000000000,177.0000000000,7.0000000000
1717675341873,94.0000000000,73.0000000000,451.0000000000,536.0000000000,176.0000000000,7.0000000000
1717675341873,94.0000000000,71.0000000000,447.0000000000,530.0000000000,175.0000000000,7.0000000000
1717675341874,93.0000000000,71.0000000000,444.0000000000,525.0000000000,174.0000000000,7.0000000000
1717675341874,92.0000000000,71.0000000000,440.0000000000,521.0000000000,173.0000000000,7.0000000000
1717675341874,92.0000000000,71.0000000000,438.0000000000,515.0000000000,172.0000000000,7.0000000000
1717675341874,91.0000000000,70.0000000000,433.0000000000,624.0000000000,171.0000000000,7.0000000000
1717675341874,91.0000000000,70.0000000000,430.0000000000,615.0000000000,169.0000000000,7.0000000000
1717675341874,90.0000000000,70.0000000000,427.0000000000,608.0000000000,168.0000000000,7.0000000000
1717675341874,89.0000000000,69.0000000000,423.0000000000,602.0000000000,167.0000000000,7.0000000000
1717675341874,88.0000000000,69.0000000000,421.0000000000,595.0000000000,211.0000000000,7.0000000000
1717675341875,88.0000000000,68.0000000000,435.0000000000,591.0000000000,223.0000000000,7.0000000000
1717675341875,88.0000000000,68.0000000000,457.0000000000,583.0000000000,222.0000000000,7.0000000000
1717675341875,87.0000000000,67.0000000000,452.0000000000,578.0000000000,220.0000000000,7.0000000000
1717675341875,87.0000000000,67.0000000000,448.0000000000,574.0000000000,217.0000000000,7.0000000000
1717675341875,86.0000000000,67.0000000000,445.0000000000,568.0000000000,216.0000000000,7.0000000000
1717675341875,86.0000000000,67.0000000000,441.0000000000,563.0000000000,216.0000000000,6.0000000000
1717675341890,85.0000000000,67.0000000000,439.0000000000,558.0000000000,214.0000000000,7.0000000000
1717675341891,84.0000000000,67.0000000000,435.0000000000,551.0000000000,212.0000000000,7.0000000000
1717675341891,83.0000000000,66.0000000000,432.0000000000,548.0000000000,211.0000000000,7.0000000000
1717675341891,83.0000000000,66.0000000000,428.0000000000,543.0000000000,210.0000000000,6.0000000000
1717675341891,83.0000000000,65.0000000000,423.0000000000,539.0000000000,208.0000000000,7.0000000000
1717675341891,82.0000000000,65.0000000000,422.0000000000,534.0000000000,207.0000000000,7.0000000000
1717675341891,82.0000000000,65.0000000000,419.0000000000,530.0000000000,206.0000000000,6.0000000000
1717675341891,81.0000000000,63.0000000000,415.0000000000,525.0000000000,204.0000000000,7.0000000000
1717675341892,80.0000000000,64.0000000000,413.0000000000,519.0000000000,204.0000000000,6.0000000000
1717675341892,80.0000000000,63.0000000000,409.0000000000,516.0000000000,201.0000000000,6.0000000000
1717675341906,79.0000000000,63.0000000000,408.0000000000,512.0000000000,200.0000000000,6.0000000000
1717675341907,79.0000000000,120.0000000000,404.0000000000,508.0000000000,199.0000000000,6.0000000000
1717675341907,79.0000000000,186.0000000000,401.0000000000,504.0000000000,246.0000000000,6.0000000000
1717675341907,79.0000000000,184.0000000000,398.0000000000,551.0000000000,243.0000000000,6.0000000000
1717675341907,78.0000000000,182.0000000000,396.0000000000,545.0000000000,241.0000000000,6.0000000000
1717675341907,78.0000000000,180.0000000000,392.0000000000,654.0000000000,239.0000000000,13.0000000000
1717675341907,78.0000000000,179.0000000000,390.0000000000,644.0000000000,236.0000000000,12.0000000000
1717675341907,77.0000000000,177.0000000000,386.0000000000,639.0000000000,236.0000000000,12.0000000000
1717675341921,76.0000000000,176.0000000000,384.0000000000,632.0000000000,233.0000000000,12.0000000000
1717675341922,76.0000000000,176.0000000000,380.0000000000,624.0000000000,231.0000000000,12.0000000000
1717675341922,76.0000000000,174.0000000000,378.0000000000,617.0000000000,230.0000000000,12.0000000000
1717675341922,75.0000000000,172.0000000000,376.0000000000,611.0000000000,228.0000000000,12.0000000000
1717675341923,74.0000000000,171.0000000000,372.0000000000,604.0000000000,227.0000000000,12.0000000000
1717675341923,73.0000000000,169.0000000000,370.0000000000,598.0000000000,226.0000000000,12.0000000000
1717675341923,73.0000000000,167.0000000000,368.0000000000,591.0000000000,224.0000000000,11.0000000000
1717675341923,71.0000000000,167.0000000000,366.0000000000,584.0000000000,222.0000000000,12.0000000000
1717675341923,76.0000000000,167.0000000000,363.0000000000,579.0000000000,221.0000000000,12.0000000000
1717675341947,79.0000000000,165.0000000000,360.0000000000,573.0000000000,219.0000000000,11.0000000000
1717675341948,78.0000000000,163.0000000000,385.0000000000,568.0000000000,218.0000000000,11.0000000000
1717675341948,78.0000000000,163.0000000000,382.0000000000,602.0000000000,216.0000000000,11.0000000000
1717675341948,77.0000000000,161.0000000000,379.0000000000,625.0000000000,216.0000000000,11.0000000000
1717675341948,76.0000000000,161.0000000000,376.0000000000,620.0000000000,214.0000000000,10.0000000000
1717675341948,76.0000000000,159.0000000000,372.0000000000,612.0000000000,212.0000000000,10.0000000000
1717675341948,76.0000000000,159.0000000000,369.0000000000,606.0000000000,263.0000000000,10.0000000000
1717675341948,75.0000000000,158.0000000000,367.0000000000,600.0000000000,259.0000000000,11.0000000000
1717675341949,74.0000000000,157.0000000000,364.0000000000,593.0000000000,257.0000000000,11.0000000000
1717675341949,73.0000000000,156.0000000000,361.0000000000,586.0000000000,255.0000000000,10.0000000000
1717675341949,73.0000000000,155.0000000000,359.0000000000,579.0000000000,254.0000000000,11.0000000000
1717675341949,72.0000000000,153.0000000000,356.0000000000,574.0000000000,252.0000000000,10.0000000000
1717675341963,71.0000000000,152.0000000000,353.0000000000,568.0000000000,251.0000000000,9.0000000000
1717675341964,71.0000000000,152.0000000000,352.0000000000,563.0000000000,248.0000000000,9.0000000000
1717675341964,71.0000000000,151.0000000000,350.0000000000,559.0000000000,247.0000000000,9.0000000000
1717675341964,71.0000000000,150.0000000000,347.0000000000,553.0000000000,245.0000000000,10.0000000000
1717675341964,71.0000000000,150.0000000000,344.0000000000,552.0000000000,243.0000000000,9.0000000000
1717675341964,70.0000000000,147.0000000000,343.0000000000,547.0000000000,242.0000000000,9.0000000000
1717675341964,70.0000000000,147.0000000000,340.0000000000,542.0000000000,240.0000000000,9.0000000000
1717675341965,69.0000000000,147.0000000000,338.0000000000,538.0000000000,239.0000000000,9.0000000000
1717675341965,68.0000000000,145.0000000000,335.0000000000,533.0000000000,237.0000000000,10.0000000000
1717675341980,68.0000000000,144.0000000000,334.0000000000,527.0000000000,236.0000000000,9.0000000000
1717675341981,67.0000000000,143.0000000000,332.0000000000,524.0000000000,234.0000000000,9.0000000000
1717675341982,67.0000000000,143.0000000000,329.0000000000,519.0000000000,231.0000000000,9.0000000000
1717675341982,67.0000000000,142.0000000000,327.0000000000,515.0000000000,231.0000000000,10.0000000000
1717675341982,67.0000000000,141.0000000000,326.0000000000,511.0000000000,230.0000000000,9.0000000000
1717675341982,66.0000000000,140.0000000000,323.0000000000,505.0000000000,228.0000000000,9.0000000000
1717675341982,65.0000000000,139.0000000000,321.0000000000,500.0000000000,227.0000000000,9.0000000000
1717675341982,65.0000000000,138.0000000000,319.0000000000,496.0000000000,225.0000000000,9.0000000000
1717675341982,65.0000000000,137.0000000000,318.0000000000,494.0000000000,224.0000000000,9.0000000000
1717675341997,64.0000000000,137.0000000000,316.0000000000,489.0000000000,222.0000000000,9.0000000000
1717675341997,63.0000000000,135.0000000000,314.0000000000,484.0000000000,221.0000000000,9.0000000000
1717675341997,63.0000000000,135.0000000000,312.0000000000,480.0000000000,227.0000000000,9.0000000000
1717675341998,63.0000000000,135.0000000000,310.0000000000,478.0000000000,225.0000000000,9.0000000000
1717675341998,63.0000000000,134.0000000000,308.0000000000,473.0000000000,224.0000000000,9.0000000000
1717675341998,63.0000000000,133.0000000000,307.0000000000,470.0000000000,223.0000000000,9.0000000000
1717675341998,63.0000000000,132.0000000000,305.0000000000,466.0000000000,221.0000000000,9.0000000000
1717675341998,62.0000000000,131.0000000000,303.0000000000,463.0000000000,220.0000000000,9.0000000000
1717675342017,62.0000000000,131.0000000000,302.0000000000,509.0000000000,219.0000000000,9.0000000000
1717675342017,62.0000000000,129.0000000000,300.0000000000,503.0000000000,217.0000000000,8.0000000000
1717675342018,61.0000000000,129.0000000000,297.0000000000,497.0000000000,216.0000000000,9.0000000000
1717675342018,60.0000000000,127.0000000000,295.0000000000,494.0000000000,214.0000000000,7.0000000000
1717675342018,60.0000000000,127.0000000000,294.0000000000,488.0000000000,212.0000000000,9.0000000000
1717675342018,60.0000000000,127.0000000000,299.0000000000,484.0000000000,211.0000000000,8.0000000000
1717675342019,59.0000000000,126.0000000000,325.0000000000,480.0000000000,211.0000000000,8.0000000000
1717675342019,59.0000000000,125.0000000000,322.0000000000,476.0000000000,209.0000000000,8.0000000000
1717675342019,59.0000000000,125.0000000000,319.0000000000,538.0000000000,207.0000000000,8.0000000000
1717675342019,58.0000000000,124.0000000000,318.0000000000,532.0000000000,207.0000000000,8.0000000000
1717675342020,58.0000000000,123.0000000000,316.0000000000,526.0000000000,206.0000000000,7.0000000000
1717675342041,57.0000000000,122.0000000000,395.0000000000,523.0000000000,204.0000000000,7.0000000000
1717675342042,57.0000000000,122.0000000000,390.0000000000,516.0000000000,203.0000000000,7.0000000000
1717675342043,56.0000000000,120.0000000000,386.0000000000,512.0000000000,202.0000000000,7.0000000000
1717675342044,56.0000000000,120.0000000000,384.0000000000,507.0000000000,200.0000000000,7.0000000000
1717675342045,56.0000000000,120.0000000000,380.0000000000,502.0000000000,199.0000000000,7.0000000000
1717675342045,56.0000000000,119.0000000000,377.0000000000,499.0000000000,198.0000000000,7.0000000000
1717675342045,55.0000000000,118.0000000000,375.0000000000,494.0000000000,196.0000000000,7.0000000000
1717675342045,55.0000000000,118.0000000000,372.0000000000,488.0000000000,196.0000000000,7.0000000000
1717675342046,55.0000000000,116.0000000000,369.0000000000,484.0000000000,195.0000000000,7.0000000000
1717675342046,55.0000000000,116.0000000000,367.0000000000,481.0000000000,193.0000000000,7.0000000000
1717675342046,54.0000000000,115.0000000000,364.0000000000,476.0000000000,192.0000000000,7.0000000000
1717675342046,54.0000000000,115.0000000000,361.0000000000,472.0000000000,192.0000000000,7.0000000000
1717675342047,54.0000000000,114.0000000000,359.0000000000,468.0000000000,190.0000000000,7.0000000000
1717675342047,54.0000000000,113.0000000000,355.0000000000,465.0000000000,189.0000000000,7.0000000000
1717675342048,52.0000000000,113.0000000000,353.0000000000,461.0000000000,188.0000000000,7.0000000000
1717675342048,52.0000000000,112.0000000000,351.0000000000,456.0000000000,187.0000000000,7.0000000000
1717675342079,52.0000000000,112.0000000000,348.0000000000,454.0000000000,185.0000000000,7.0000000000
1717675342079,52.0000000000,111.0000000000,345.0000000000,451.0000000000,184.0000000000,7.0000000000
1717675342079,51.0000000000,111.0000000000,344.0000000000,447.0000000000,184.0000000000,7.0000000000
1717675342080,51.0000000000,110.0000000000,342.0000000000,444.0000000000,183.0000000000,7.0000000000
1717675342080,51.0000000000,109.0000000000,339.0000000000,440.0000000000,182.0000000000,7.0000000000
1717675342080,51.0000000000,108.0000000000,337.0000000000,438.0000000000,180.0000000000,7.0000000000
1717675342080,50.0000000000,108.0000000000,334.0000000000,433.0000000000,179.0000000000,7.0000000000
1717675342080,50.0000000000,107.0000000000,332.0000000000,430.0000000000,179.0000000000,15.0000000000
1717675342080,50.0000000000,107.0000000000,329.0000000000,427.0000000000,177.0000000000,15.0000000000
1717675342080,49.0000000000,106.0000000000,327.0000000000,456.0000000000,176.0000000000,14.0000000000
1717675342080,49.0000000000,105.0000000000,326.0000000000,452.0000000000,176.0000000000,14.0000000000
1717675342080,49.0000000000,103.0000000000,323.0000000000,467.0000000000,174.0000000000,14.0000000000
1717675342080,49.0000000000,103.0000000000,321.0000000000,462.0000000000,174.0000000000,14.0000000000
1717675342080,48.0000000000,103.0000000000,319.0000000000,457.0000000000,172.0000000000,14.0000000000
1717675342081,48.0000000000,103.0000000000,316.0000000000,455.0000000000,172.0000000000,14.0000000000
1717675342081,48.0000000000,103.0000000000,315.0000000000,450.0000000000,192.0000000000,14.0000000000
1717675342081,48.0000000000,102.0000000000,312.0000000000,470.0000000000,189.0000000000,14.0000000000
1717675342095,47.0000000000,102.0000000000,310.0000000000,465.0000000000,188.0000000000,14.0000000000
1717675342096,46.0000000000,100.0000000000,308.0000000000,460.0000000000,187.0000000000,14.0000000000
1717675342097,47.0000000000,99.0000000000,306.0000000000,455.0000000000,185.0000000000,13.0000000000
1717675342097,46.0000000000,99.0000000000,304.0000000000,451.0000000000,184.0000000000,13.0000000000
1717675342097,46.0000000000,99.0000000000,302.0000000000,448.0000000000,184.0000000000,13.0000000000
1717675342097,46.0000000000,99.0000000000,300.0000000000,444.0000000000,182.0000000000,13.0000000000
1717675342098,46.0000000000,98.0000000000,332.0000000000,440.0000000000,231.0000000000,12.0000000000
1717675342099,45.0000000000,97.0000000000,340.0000000000,436.0000000000,227.0000000000,13.0000000000
1717675342099,44.0000000000,96.0000000000,337.0000000000,433.0000000000,226.0000000000,12.0000000000
1717675342099,45.0000000000,96.0000000000,335.0000000000,429.0000000000,224.0000000000,12.0000000000
1717675342100,44.0000000000,96.0000000000,332.0000000000,425.0000000000,224.0000000000,12.0000000000
1717675342123,44.0000000000,95.0000000000,330.0000000000,423.0000000000,222.0000000000,12.0000000000
1717675342124,44.0000000000,95.0000000000,327.0000000000,419.0000000000,220.0000000000,12.0000000000
1717675342124,43.0000000000,94.0000000000,324.0000000000,417.0000000000,218.0000000000,12.0000000000
1717675342124,43.0000000000,94.0000000000,322.0000000000,414.0000000000,217.0000000000,12.0000000000
1717675342124,43.0000000000,93.0000000000,319.0000000000,411.0000000000,216.0000000000,12.0000000000
1717675342124,43.0000000000,92.0000000000,319.0000000000,440.0000000000,215.0000000000,12.0000000000
1717675342125,43.0000000000,92.0000000000,316.0000000000,436.0000000000,213.0000000000,12.0000000000
1717675342125,42.0000000000,92.0000000000,313.0000000000,432.0000000000,211.0000000000,11.0000000000
1717675342125,42.0000000000,91.0000000000,312.0000000000,428.0000000000,210.0000000000,12.0000000000
1717675342125,41.0000000000,90.0000000000,327.0000000000,424.0000000000,209.0000000000,11.0000000000
1717675342125,41.0000000000,90.0000000000,324.0000000000,422.0000000000,207.0000000000,11.0000000000
1717675342125,41.0000000000,89.0000000000,321.0000000000,418.0000000000,206.0000000000,12.0000000000
1717675342125,41.0000000000,89.0000000000,319.0000000000,414.0000000000,205.0000000000,11.0000000000
1717675342138,41.0000000000,88.0000000000,317.0000000000,411.0000000000,204.0000000000,11.0000000000
1717675342139,40.0000000000,88.0000000000,315.0000000000,408.0000000000,201.0000000000,11.0000000000
1717675342139,39.0000000000,88.0000000000,312.0000000000,405.0000000000,200.0000000000,11.0000000000
1717675342139,39.0000000000,88.0000000000,366.0000000000,403.0000000000,199.0000000000,11.0000000000
1717675342139,39.0000000000,87.0000000000,494.0000000000,399.0000000000,199.0000000000,11.0000000000
1717675342140,39.0000000000,87.0000000000,487.0000000000,397.0000000000,198.0000000000,11.0000000000
1717675342140,39.0000000000,86.0000000000,483.0000000000,393.0000000000,196.0000000000,11.0000000000
1717675342140,39.0000000000,86.0000000000,479.0000000000,391.0000000000,195.0000000000,10.0000000000
1717675342160,39.0000000000,85.0000000000,474.0000000000,388.0000000000,194.0000000000,11.0000000000
1717675342161,39.0000000000,84.0000000000,470.0000000000,504.0000000000,192.0000000000,10.0000000000
1717675342161,38.0000000000,84.0000000000,466.0000000000,497.0000000000,191.0000000000,10.0000000000
1717675342161,39.0000000000,83.0000000000,463.0000000000,492.0000000000,190.0000000000,10.0000000000
1717675342161,38.0000000000,83.0000000000,459.0000000000,487.0000000000,189.0000000000,9.0000000000
1717675342161,38.0000000000,82.0000000000,455.0000000000,484.0000000000,188.0000000000,9.0000000000
1717675342161,38.0000000000,81.0000000000,452.0000000000,480.0000000000,187.0000000000,10.0000000000
1717675342162,38.0000000000,81.0000000000,448.0000000000,505.0000000000,185.0000000000,10.0000000000
1717675342162,37.0000000000,81.0000000000,444.0000000000,502.0000000000,184.0000000000,9.0000000000
1717675342162,36.0000000000,80.0000000000,441.0000000000,496.0000000000,184.0000000000,9.0000000000
1717675342162,36.0000000000,79.0000000000,438.0000000000,492.0000000000,183.0000000000,9.0000000000
1717675342162,36.0000000000,79.0000000000,487.0000000000,487.0000000000,181.0000000000,10.0000000000
1717675342176,36.0000000000,79.0000000000,483.0000000000,483.0000000000,180.0000000000,10.0000000000
1717675342177,36.0000000000,79.0000000000,479.0000000000,479.0000000000,179.0000000000,10.0000000000
1717675342177,35.0000000000,79.0000000000,475.0000000000,475.0000000000,179.0000000000,10.0000000000
1717675342177,35.0000000000,78.0000000000,471.0000000000,472.0000000000,177.0000000000,9.0000000000
1717675342177,35.0000000000,78.0000000000,467.0000000000,467.0000000000,176.0000000000,9.0000000000
1717675342178,35.0000000000,77.0000000000,463.0000000000,463.0000000000,176.0000000000,9.0000000000
1717675342178,35.0000000000,77.0000000000,460.0000000000,459.0000000000,175.0000000000,9.0000000000
1717675342178,35.0000000000,99.0000000000,455.0000000000,455.0000000000,174.0000000000,9.0000000000
1717675342178,35.0000000000,98.0000000000,452.0000000000,452.0000000000,172.0000000000,9.0000000000
1717675342192,34.0000000000,97.0000000000,449.0000000000,448.0000000000,172.0000000000,9.0000000000
1717675342192,34.0000000000,96.0000000000,445.0000000000,445.0000000000,171.0000000000,9.0000000000
1717675342192,33.0000000000,96.0000000000,455.0000000000,441.0000000000,169.0000000000,9.0000000000
1717675342192,33.0000000000,95.0000000000,451.0000000000,438.0000000000,168.0000000000,9.0000000000
1717675342193,33.0000000000,95.0000000000,447.0000000000,434.0000000000,167.0000000000,9.0000000000
1717675342193,33.0000000000,94.0000000000,444.0000000000,431.0000000000,167.0000000000,9.0000000000
1717675342193,33.0000000000,94.0000000000,440.0000000000,428.0000000000,166.0000000000,9.0000000000
1717675342194,32.0000000000,93.0000000000,437.0000000000,425.0000000000,166.0000000000,9.0000000000
1717675342194,33.0000000000,92.0000000000,433.0000000000,422.0000000000,164.0000000000,9.0000000000
1717675342208,32.0000000000,92.0000000000,430.0000000000,419.0000000000,163.0000000000,9.0000000000
1717675342209,31.0000000000,91.0000000000,428.0000000000,415.0000000000,162.0000000000,9.0000000000
1717675342209,31.0000000000,91.0000000000,423.0000000000,412.0000000000,161.0000000000,7.0000000000
1717675342209,31.0000000000,90.0000000000,422.0000000000,409.0000000000,161.0000000000,8.0000000000
1717675342209,32.0000000000,89.0000000000,418.0000000000,407.0000000000,159.0000000000,8.0000000000
1717675342209,31.0000000000,89.0000000000,415.0000000000,403.0000000000,159.0000000000,7.0000000000
1717675342209,31.0000000000,88.0000000000,412.0000000000,399.0000000000,158.0000000000,8.0000000000
1717675342210,31.0000000000,88.0000000000,409.0000000000,398.0000000000,158.0000000000,7.0000000000
1717675342210,31.0000000000,88.0000000000,407.0000000000,395.0000000000,156.0000000000,7.0000000000
1717675342224,31.0000000000,87.0000000000,404.0000000000,391.0000000000,156.0000000000,7.0000000000
1717675342225,31.0000000000,87.0000000000,401.0000000000,389.0000000000,155.0000000000,7.0000000000
1717675342225,31.0000000000,86.0000000000,399.0000000000,387.0000000000,193.0000000000,7.0000000000
1717675342225,31.0000000000,86.0000000000,396.0000000000,384.0000000000,211.0000000000,7.0000000000
1717675342225,30.0000000000,84.0000000000,393.0000000000,381.0000000000,209.0000000000,7.0000000000
1717675342225,30.0000000000,84.0000000000,391.0000000000,429.0000000000,207.0000000000,7.0000000000
1717675342225,30.0000000000,83.0000000000,388.0000000000,423.0000000000,207.0000000000,7.0000000000
1717675342226,30.0000000000,83.0000000000,385.0000000000,421.0000000000,205.0000000000,7.0000000000
1717675342226,30.0000000000,83.0000000000,383.0000000000,465.0000000000,204.0000000000,7.0000000000
1717675342241,29.0000000000,83.0000000000,380.0000000000,460.0000000000,203.0000000000,7.0000000000
1717675342242,29.0000000000,81.0000000000,377.0000000000,455.0000000000,201.0000000000,7.0000000000
1717675342242,29.0000000000,81.0000000000,376.0000000000,452.0000000000,199.0000000000,7.0000000000
1717675342242,29.0000000000,81.0000000000,374.0000000000,449.0000000000,199.0000000000,7.0000000000
1717675342242,28.0000000000,81.0000000000,371.0000000000,446.0000000000,198.0000000000,7.0000000000
1717675342242,28.0000000000,79.0000000000,543.0000000000,440.0000000000,196.0000000000,7.0000000000
1717675342242,28.0000000000,79.0000000000,569.0000000000,438.0000000000,195.0000000000,7.0000000000
1717675342242,28.0000000000,79.0000000000,564.0000000000,433.0000000000,194.0000000000,7.0000000000
1717675342242,28.0000000000,79.0000000000,559.0000000000,431.0000000000,193.0000000000,7.0000000000
1717675342257,28.0000000000,79.0000000000,555.0000000000,427.0000000000,192.0000000000,7.0000000000
1717675342258,28.0000000000,78.0000000000,548.0000000000,423.0000000000,190.0000000000,7.0000000000
1717675342258,27.0000000000,78.0000000000,543.0000000000,420.0000000000,189.0000000000,7.0000000000
1717675342258,27.0000000000,77.0000000000,540.0000000000,416.0000000000,188.0000000000,7.0000000000
1717675342258,27.0000000000,77.0000000000,535.0000000000,414.0000000000,187.0000000000,7.0000000000
1717675342258,27.0000000000,76.0000000000,531.0000000000,411.0000000000,185.0000000000,7.0000000000
1717675342258,27.0000000000,76.0000000000,526.0000000000,408.0000000000,185.0000000000,7.0000000000
1717675342272,27.0000000000,76.0000000000,521.0000000000,404.0000000000,184.0000000000,6.0000000000
1717675342273,27.0000000000,78.0000000000,518.0000000000,401.0000000000,183.0000000000,7.0000000000
1717675342273,27.0000000000,78.0000000000,513.0000000000,399.0000000000,182.0000000000,7.0000000000
1717675342273,25.0000000000,77.0000000000,510.0000000000,395.0000000000,180.0000000000,7.0000000000
1717675342273,25.0000000000,77.0000000000,505.0000000000,393.0000000000,179.0000000000,7.0000000000
1717675342273,26.0000000000,76.0000000000,502.0000000000,390.0000000000,179.0000000000,7.0000000000
1717675342273,26.0000000000,76.0000000000,497.0000000000,387.0000000000,177.0000000000,6.0000000000
1717675342273,26.0000000000,76.0000000000,493.0000000000,384.0000000000,176.0000000000,7.0000000000
1717675342273,25.0000000000,75.0000000000,489.0000000000,381.0000000000,175.0000000000,6.0000000000
1717675342288,25.0000000000,75.0000000000,487.0000000000,379.0000000000,174.0000000000,7.0000000000
1717675342288,25.0000000000,74.0000000000,483.0000000000,376.0000000000,174.0000000000,6.0000000000
1717675342288,25.0000000000,73.0000000000,480.0000000000,374.0000000000,172.0000000000,6.0000000000
1717675342288,25.0000000000,73.0000000000,476.0000000000,371.0000000000,172.0000000000,6.0000000000
1717675342288,25.0000000000,72.0000000000,472.0000000000,368.0000000000,171.0000000000,6.0000000000
1717675342288,24.0000000000,72.0000000000,467.0000000000,367.0000000000,169.0000000000,6.0000000000
1717675342289,24.0000000000,71.0000000000,465.0000000000,364.0000000000,168.0000000000,6.0000000000
1717675342289,24.0000000000,71.0000000000,462.0000000000,361.0000000000,167.0000000000,6.0000000000
1717675342289,24.0000000000,71.0000000000,457.0000000000,452.0000000000,167.0000000000,7.0000000000
1717675342289,24.0000000000,71.0000000000,455.0000000000,448.0000000000,166.0000000000,7.0000000000
1717675342302,24.0000000000,71.0000000000,451.0000000000,444.0000000000,164.0000000000,7.0000000000
1717675342303,24.0000000000,70.0000000000,449.0000000000,440.0000000000,210.0000000000,6.0000000000
1717675342303,24.0000000000,70.0000000000,446.0000000000,437.0000000000,207.0000000000,6.0000000000
1717675342303,24.0000000000,70.0000000000,443.0000000000,432.0000000000,207.0000000000,6.0000000000
1717675342303,24.0000000000,69.0000000000,440.0000000000,428.0000000000,205.0000000000,6.0000000000
1717675342303,24.0000000000,69.0000000000,436.0000000000,425.0000000000,204.0000000000,6.0000000000
1717675342316,24.0000000000,68.0000000000,433.0000000000,422.0000000000,203.0000000000,6.0000000000
1717675342317,24.0000000000,67.0000000000,430.0000000000,419.0000000000,200.0000000000,6.0000000000
1717675342317,23.0000000000,67.0000000000,428.0000000000,415.0000000000,199.0000000000,6.0000000000
1717675342317,23.0000000000,67.0000000000,423.0000000000,412.0000000000,199.0000000000,6.0000000000
1717675342317,23.0000000000,67.0000000000,422.0000000000,409.0000000000,198.0000000000,6.0000000000
1717675342317,23.0000000000,67.0000000000,497.0000000000,406.0000000000,195.0000000000,6.0000000000
1717675342317,22.0000000000,67.0000000000,492.0000000000,403.0000000000,195.0000000000,6.0000000000
1717675342318,22.0000000000,71.0000000000,488.0000000000,399.0000000000,194.0000000000,6.0000000000
1717675342318,22.0000000000,71.0000000000,484.0000000000,397.0000000000,192.0000000000,6.0000000000
1717675342318,22.0000000000,71.0000000000,480.0000000000,393.0000000000,192.0000000000,6.0000000000
1717675342330,22.0000000000,71.0000000000,476.0000000000,414.0000000000,190.0000000000,6.0000000000
1717675342331,22.0000000000,70.0000000000,472.0000000000,410.0000000000,189.0000000000,6.0000000000
1717675342331,22.0000000000,70.0000000000,468.0000000000,406.0000000000,188.0000000000,6.0000000000
1717675342331,22.0000000000,68.0000000000,465.0000000000,403.0000000000,187.0000000000,5.0000000000
1717675342331,22.0000000000,68.0000000000,462.0000000000,399.0000000000,185.0000000000,6.0000000000
1717675342331,22.0000000000,68.0000000000,459.0000000000,398.0000000000,184.0000000000,5.0000000000
1717675342344,21.0000000000,68.0000000000,455.0000000000,399.0000000000,184.0000000000,6.0000000000
1717675342344,21.0000000000,67.0000000000,451.0000000000,395.0000000000,183.0000000000,4.0000000000
1717675342345,21.0000000000,67.0000000000,448.0000000000,392.0000000000,182.0000000000,6.0000000000
1717675342345,20.0000000000,67.0000000000,445.0000000000,390.0000000000,180.0000000000,5.0000000000
1717675342345,20.0000000000,67.0000000000,441.0000000000,387.0000000000,179.0000000000,4.0000000000
1717675342345,20.0000000000,66.0000000000,438.0000000000,384.0000000000,178.0000000000,5.0000000000
1717675342345,20.0000000000,66.0000000000,435.0000000000,380.0000000000,177.0000000000,4.0000000000
1717675342345,20.0000000000,65.0000000000,432.0000000000,378.0000000000,176.0000000000,5.0000000000
1717675342345,19.0000000000,65.0000000000,428.0000000000,376.0000000000,176.0000000000,5.0000000000
1717675342345,20.0000000000,65.0000000000,425.0000000000,373.0000000000,174.0000000000,5.0000000000
1717675342359,20.0000000000,63.0000000000,422.0000000000,370.0000000000,173.0000000000,5.0000000000
1717675342359,20.0000000000,63.0000000000,419.0000000000,367.0000000000,172.0000000000,4.0000000000
1717675342359,20.0000000000,63.0000000000,415.0000000000,366.0000000000,171.0000000000,5.0000000000
1717675342359,20.0000000000,63.0000000000,414.0000000000,363.0000000000,170.0000000000,5.0000000000
1717675342360,20.0000000000,63.0000000000,542.0000000000,359.0000000000,169.0000000000,4.0000000000
1717675342360,19.0000000000,63.0000000000,543.0000000000,358.0000000000,167.0000000000,4.0000000000
1717675342361,19.0000000000,63.0000000000,537.0000000000,355.0000000000,167.0000000000,4.0000000000
1717675342361,19.0000000000,62.0000000000,531.0000000000,353.0000000000,166.0000000000,5.0000000000
1717675342361,19.0000000000,62.0000000000,527.0000000000,351.0000000000,166.0000000000,4.0000000000
1717675342375,19.0000000000,61.0000000000,523.0000000000,349.0000000000,164.0000000000,5.0000000000
1717675342376,19.0000000000,62.0000000000,519.0000000000,347.0000000000,163.0000000000,4.0000000000
1717675342376,19.0000000000,61.0000000000,514.0000000000,344.0000000000,163.0000000000,4.0000000000
1717675342376,19.0000000000,61.0000000000,510.0000000000,417.0000000000,161.0000000000,3.0000000000
1717675342376,19.0000000000,60.0000000000,505.0000000000,419.0000000000,161.0000000000,4.0000000000
1717675342377,19.0000000000,116.0000000000,502.0000000000,416.0000000000,159.0000000000,4.0000000000
1717675342377,19.0000000000,115.0000000000,497.0000000000,412.0000000000,158.0000000000,4.0000000000
1717675342377,19.0000000000,114.0000000000,494.0000000000,408.0000000000,158.0000000000,4.0000000000
1717675342378,19.0000000000,113.0000000000,489.0000000000,404.0000000000,157.0000000000,4.0000000000
1717675342398,19.0000000000,112.0000000000,486.0000000000,401.0000000000,156.0000000000,4.0000000000
1717675342399,19.0000000000,112.0000000000,481.0000000000,398.0000000000,155.0000000000,4.0000000000
1717675342399,19.0000000000,111.0000000000,478.0000000000,395.0000000000,154.0000000000,3.0000000000
1717675342399,19.0000000000,110.0000000000,473.0000000000,391.0000000000,153.0000000000,4.0000000000
1717675342399,18.0000000000,110.0000000000,471.0000000000,389.0000000000,169.0000000000,4.0000000000
1717675342400,18.0000000000,109.0000000000,466.0000000000,385.0000000000,211.0000000000,5.0000000000
1717675342400,18.0000000000,108.0000000000,463.0000000000,383.0000000000,209.0000000000,5.0000000000
1717675342400,18.0000000000,107.0000000000,460.0000000000,380.0000000000,207.0000000000,5.0000000000
1717675342400,18.0000000000,107.0000000000,455.0000000000,376.0000000000,207.0000000000,5.0000000000
1717675342400,17.0000000000,105.0000000000,452.0000000000,374.0000000000,204.0000000000,5.0000000000
1717675342400,17.0000000000,105.0000000000,448.0000000000,371.0000000000,203.0000000000,5.0000000000
1717675342417,17.0000000000,103.0000000000,446.0000000000,368.0000000000,201.0000000000,4.0000000000
1717675342418,17.0000000000,103.0000000000,441.0000000000,364.0000000000,199.0000000000,4.0000000000
1717675342418,17.0000000000,103.0000000000,439.0000000000,363.0000000000,199.0000000000,4.0000000000
1717675342418,19.0000000000,103.0000000000,435.0000000000,359.0000000000,198.0000000000,4.0000000000
1717675342418,19.0000000000,102.0000000000,432.0000000000,356.0000000000,197.0000000000,4.0000000000
1717675342419,19.0000000000,101.0000000000,429.0000000000,355.0000000000,195.0000000000,4.0000000000
1717675342419,19.0000000000,100.0000000000,425.0000000000,352.0000000000,194.0000000000,4.0000000000
1717675342419,18.0000000000,99.0000000000,423.0000000000,350.0000000000,193.0000000000,4.0000000000
1717675342419,19.0000000000,99.0000000000,420.0000000000,347.0000000000,192.0000000000,4.0000000000
1717675342419,19.0000000000,99.0000000000,417.0000000000,345.0000000000,191.0000000000,4.0000000000
1717675342419,18.0000000000,98.0000000000,414.0000000000,343.0000000000,190.0000000000,4.0000000000
1717675342446,18.0000000000,97.0000000000,412.0000000000,340.0000000000,188.0000000000,4.0000000000
1717675342447,18.0000000000,97.0000000000,408.0000000000,338.0000000000,188.0000000000,4.0000000000
1717675342447,18.0000000000,96.0000000000,406.0000000000,335.0000000000,187.0000000000,3.0000000000
1717675342447,18.0000000000,96.0000000000,403.0000000000,334.0000000000,185.0000000000,4.0000000000
1717675342448,17.0000000000,95.0000000000,400.0000000000,332.0000000000,184.0000000000,3.0000000000
1717675342448,18.0000000000,95.0000000000,398.0000000000,331.0000000000,183.0000000000,3.0000000000
1717675342448,17.0000000000,94.0000000000,396.0000000000,327.0000000000,182.0000000000,3.0000000000
1717675342448,17.0000000000,94.0000000000,393.0000000000,327.0000000000,180.0000000000,3.0000000000
1717675342449,17.0000000000,93.0000000000,391.0000000000,324.0000000000,179.0000000000,3.0000000000
1717675342449,17.0000000000,92.0000000000,388.0000000000,322.0000000000,179.0000000000,3.0000000000
1717675342449,17.0000000000,92.0000000000,385.0000000000,319.0000000000,178.0000000000,3.0000000000
1717675342449,17.0000000000,92.0000000000,384.0000000000,318.0000000000,176.0000000000,3.0000000000
1717675342449,17.0000000000,91.0000000000,380.0000000000,316.0000000000,176.0000000000,3.0000000000
1717675342450,17.0000000000,90.0000000000,379.0000000000,315.0000000000,175.0000000000,4.0000000000
1717675342450,16.0000000000,90.0000000000,376.0000000000,312.0000000000,174.0000000000,3.0000000000
1717675342450,17.0000000000,89.0000000000,374.0000000000,312.0000000000,172.0000000000,3.0000000000
1717675342465,16.0000000000,89.0000000000,371.0000000000,309.0000000000,172.0000000000,3.0000000000
1717675342466,16.0000000000,88.0000000000,369.0000000000,307.0000000000,170.0000000000,3.0000000000
1717675342467,15.0000000000,88.0000000000,367.0000000000,305.0000000000,170.0000000000,4.0000000000
1717675342467,15.0000000000,87.0000000000,364.0000000000,304.0000000000,168.0000000000,3.0000000000
1717675342467,15.0000000000,87.0000000000,362.0000000000,302.0000000000,167.0000000000,3.0000000000
1717675342467,15.0000000000,87.0000000000,359.0000000000,300.0000000000,167.0000000000,3.0000000000
1717675342467,15.0000000000,86.0000000000,358.0000000000,299.0000000000,166.0000000000,3.0000000000
1717675342468,15.0000000000,86.0000000000,356.0000000000,376.0000000000,165.0000000000,7.0000000000
1717675342468,15.0000000000,85.0000000000,353.0000000000,466.0000000000,164.0000000000,7.0000000000
1717675342468,15.0000000000,84.0000000000,352.0000000000,460.0000000000,163.0000000000,7.0000000000
1717675342468,15.0000000000,84.0000000000,350.0000000000,455.0000000000,162.0000000000,6.0000000000
1717675342486,15.0000000000,83.0000000000,347.0000000000,452.0000000000,161.0000000000,6.0000000000
1717675342488,15.0000000000,83.0000000000,345.0000000000,448.0000000000,160.0000000000,6.0000000000
1717675342488,15.0000000000,82.0000000000,344.0000000000,445.0000000000,159.0000000000,6.0000000000
1717675342488,15.0000000000,82.0000000000,342.0000000000,440.0000000000,159.0000000000,6.0000000000
1717675342488,15.0000000000,81.0000000000,351.0000000000,438.0000000000,157.0000000000,6.0000000000
1717675342489,15.0000000000,81.0000000000,435.0000000000,434.0000000000,156.0000000000,6.0000000000
1717675342489,15.0000000000,81.0000000000,432.0000000000,430.0000000000,156.0000000000,6.0000000000
1717675342489,15.0000000000,80.0000000000,500.0000000000,428.0000000000,155.0000000000,6.0000000000
1717675342489,15.0000000000,79.0000000000,526.0000000000,423.0000000000,156.0000000000,6.0000000000
1717675342490,14.0000000000,79.0000000000,519.0000000000,420.0000000000,154.0000000000,6.0000000000
1717675342491,14.0000000000,79.0000000000,515.0000000000,417.0000000000,153.0000000000,6.0000000000
1717675342491,14.0000000000,79.0000000000,511.0000000000,414.0000000000,153.0000000000,5.0000000000
1717675342520,14.0000000000,78.0000000000,507.0000000000,411.0000000000,174.0000000000,5.0000000000
1717675342521,14.0000000000,78.0000000000,503.0000000000,408.0000000000,173.0000000000,5.0000000000
1717675342521,14.0000000000,77.0000000000,497.0000000000,404.0000000000,172.0000000000,5.0000000000
1717675342521,14.0000000000,77.0000000000,495.0000000000,401.0000000000,171.0000000000,4.0000000000
1717675342521,14.0000000000,76.0000000000,490.0000000000,398.0000000000,169.0000000000,5.0000000000
1717675342521,14.0000000000,76.0000000000,486.0000000000,396.0000000000,167.0000000000,5.0000000000
1717675342521,14.0000000000,76.0000000000,482.0000000000,391.0000000000,167.0000000000,6.0000000000
1717675342522,14.0000000000,75.0000000000,479.0000000000,390.0000000000,167.0000000000,6.0000000000
1717675342522,14.0000000000,75.0000000000,476.0000000000,489.0000000000,164.0000000000,4.0000000000
1717675342522,14.0000000000,73.0000000000,472.0000000000,485.0000000000,163.0000000000,5.0000000000
1717675342522,14.0000000000,73.0000000000,467.0000000000,480.0000000000,163.0000000000,5.0000000000
1717675342522,14.0000000000,73.0000000000,464.0000000000,476.0000000000,162.0000000000,5.0000000000
1717675342522,14.0000000000,73.0000000000,460.0000000000,472.0000000000,161.0000000000,4.0000000000
1717675342522,14.0000000000,71.0000000000,457.0000000000,467.0000000000,159.0000000000,4.0000000000
1717675342523,14.0000000000,71.0000000000,454.0000000000,463.0000000000,159.0000000000,4.0000000000
1717675342523,14.0000000000,71.0000000000,450.0000000000,460.0000000000,158.0000000000,4.0000000000
1717675342523,14.0000000000,71.0000000000,448.0000000000,455.0000000000,158.0000000000,4.0000000000
1717675342523,14.0000000000,71.0000000000,444.0000000000,452.0000000000,156.0000000000,4.0000000000
1717675342538,14.0000000000,71.0000000000,441.0000000000,448.0000000000,156.0000000000,4.0000000000
1717675342539,14.0000000000,70.0000000000,438.0000000000,445.0000000000,155.0000000000,4.0000000000
1717675342539,13.0000000000,70.0000000000,435.0000000000,441.0000000000,153.0000000000,4.0000000000
1717675342539,13.0000000000,69.0000000000,432.0000000000,438.0000000000,152.0000000000,4.0000000000
1717675342540,13.0000000000,68.0000000000,428.0000000000,435.0000000000,152.0000000000,4.0000000000
1717675342540,13.0000000000,68.0000000000,425.0000000000,431.0000000000,151.0000000000,4.0000000000
1717675342540,12.0000000000,68.0000000000,422.0000000000,428.0000000000,150.0000000000,4.0000000000
1717675342540,13.0000000000,67.0000000000,420.0000000000,423.0000000000,149.0000000000,4.0000000000
1717675342540,13.0000000000,67.0000000000,416.0000000000,422.0000000000,149.0000000000,4.0000000000
1717675342556,12.0000000000,67.0000000000,414.0000000000,418.0000000000,147.0000000000,3.0000000000
1717675342557,12.0000000000,67.0000000000,436.0000000000,414.0000000000,147.0000000000,3.0000000000
1717675342557,12.0000000000,67.0000000000,432.0000000000,412.0000000000,146.0000000000,4.0000000000
1717675342557,12.0000000000,66.0000000000,430.0000000000,408.0000000000,145.0000000000,4.0000000000
1717675342557,12.0000000000,65.0000000000,426.0000000000,406.0000000000,144.0000000000,4.0000000000
1717675342557,12.0000000000,65.0000000000,422.0000000000,403.0000000000,143.0000000000,4.0000000000
1717675342557,12.0000000000,65.0000000000,419.0000000000,399.0000000000,143.0000000000,4.0000000000
1717675342557,12.0000000000,64.0000000000,416.0000000000,441.0000000000,143.0000000000,4.0000000000
1717675342557,12.0000000000,64.0000000000,414.0000000000,436.0000000000,143.0000000000,3.0000000000
1717675342558,12.0000000000,63.0000000000,411.0000000000,434.0000000000,143.0000000000,3.0000000000
1717675342558,12.0000000000,63.0000000000,497.0000000000,430.0000000000,142.0000000000,4.0000000000
1717675342558,12.0000000000,63.0000000000,492.0000000000,425.0000000000,141.0000000000,3.0000000000
1717675342580,11.0000000000,63.0000000000,487.0000000000,423.0000000000,140.0000000000,3.0000000000
1717675342580,12.0000000000,63.0000000000,483.0000000000,419.0000000000,140.0000000000,3.0000000000
1717675342580,11.0000000000,62.0000000000,480.0000000000,415.0000000000,139.0000000000,3.0000000000
1717675342581,11.0000000000,62.0000000000,476.0000000000,412.0000000000,138.0000000000,3.0000000000
1717675342581,11.0000000000,62.0000000000,472.0000000000,409.0000000000,137.0000000000,3.0000000000
1717675342581,11.0000000000,62.0000000000,468.0000000000,406.0000000000,135.0000000000,3.0000000000
1717675342581,11.0000000000,60.0000000000,464.0000000000,403.0000000000,135.0000000000,3.0000000000
1717675342581,11.0000000000,60.0000000000,461.0000000000,399.0000000000,135.0000000000,3.0000000000
1717675342581,11.0000000000,60.0000000000,458.0000000000,397.0000000000,135.0000000000,3.0000000000
1717675342581,11.0000000000,60.0000000000,454.0000000000,395.0000000000,134.0000000000,3.0000000000
1717675342581,11.0000000000,60.0000000000,450.0000000000,391.0000000000,134.0000000000,3.0000000000
1717675342599,11.0000000000,59.0000000000,448.0000000000,387.0000000000,132.0000000000,3.0000000000
1717675342601,11.0000000000,59.0000000000,444.0000000000,385.0000000000,132.0000000000,3.0000000000
1717675342601,11.0000000000,59.0000000000,440.0000000000,383.0000000000,131.0000000000,3.0000000000
1717675342601,11.0000000000,59.0000000000,437.0000000000,380.0000000000,131.0000000000,3.0000000000
1717675342601,11.0000000000,59.0000000000,435.0000000000,377.0000000000,129.0000000000,3.0000000000
1717675342602,13.0000000000,57.0000000000,432.0000000000,375.0000000000,129.0000000000,3.0000000000
1717675342602,12.0000000000,57.0000000000,434.0000000000,372.0000000000,129.0000000000,3.0000000000
1717675342602,12.0000000000,75.0000000000,454.0000000000,369.0000000000,127.0000000000,3.0000000000
1717675342602,12.0000000000,74.0000000000,449.0000000000,368.0000000000,209.0000000000,3.0000000000
1717675342603,12.0000000000,73.0000000000,446.0000000000,364.0000000000,207.0000000000,3.0000000000
1717675342603,12.0000000000,71.0000000000,443.0000000000,363.0000000000,206.0000000000,3.0000000000
1717675342603,12.0000000000,71.0000000000,439.0000000000,359.0000000000,204.0000000000,3.0000000000
1717675342604,12.0000000000,71.0000000000,435.0000000000,358.0000000000,203.0000000000,3.0000000000
1717675342604,12.0000000000,71.0000000000,432.0000000000,355.0000000000,201.0000000000,3.0000000000
1717675342625,12.0000000000,71.0000000000,429.0000000000,364.0000000000,199.0000000000,3.0000000000
1717675342626,12.0000000000,70.0000000000,483.0000000000,361.0000000000,199.0000000000,3.0000000000
1717675342626,11.0000000000,70.0000000000,579.0000000000,359.0000000000,198.0000000000,3.0000000000
1717675342626,11.0000000000,70.0000000000,574.0000000000,355.0000000000,196.0000000000,3.0000000000
1717675342626,12.0000000000,69.0000000000,568.0000000000,353.0000000000,195.0000000000,3.0000000000
1717675342626,11.0000000000,106.0000000000,563.0000000000,351.0000000000,194.0000000000,3.0000000000
1717675342627,11.0000000000,104.0000000000,558.0000000000,348.0000000000,192.0000000000,2.0000000000
1717675342627,12.0000000000,103.0000000000,554.0000000000,347.0000000000,192.0000000000,3.0000000000
1717675342628,11.0000000000,103.0000000000,548.0000000000,344.0000000000,191.0000000000,3.0000000000
1717675342628,11.0000000000,103.0000000000,544.0000000000,341.0000000000,190.0000000000,3.0000000000
1717675342628,11.0000000000,102.0000000000,540.0000000000,339.0000000000,188.0000000000,2.0000000000
1717675342628,11.0000000000,101.0000000000,535.0000000000,336.0000000000,187.0000000000,3.0000000000
1717675342628,11.0000000000,100.0000000000,530.0000000000,388.0000000000,185.0000000000,3.0000000000
1717675342642,10.0000000000,99.0000000000,526.0000000000,384.0000000000,184.0000000000,3.0000000000
1717675342642,11.0000000000,99.0000000000,521.0000000000,381.0000000000,184.0000000000,2.0000000000
1717675342642,11.0000000000,98.0000000000,516.0000000000,377.0000000000,183.0000000000,2.0000000000
1717675342642,11.0000000000,97.0000000000,513.0000000000,374.0000000000,181.0000000000,3.0000000000
1717675342642,11.0000000000,97.0000000000,509.0000000000,371.0000000000,179.0000000000,3.0000000000
1717675342642,10.0000000000,96.0000000000,505.0000000000,368.0000000000,179.0000000000,2.0000000000
1717675342643,11.0000000000,96.0000000000,502.0000000000,396.0000000000,177.0000000000,3.0000000000
1717675342657,11.0000000000,96.0000000000,497.0000000000,391.0000000000,176.0000000000,3.0000000000
1717675342659,11.0000000000,95.0000000000,493.0000000000,387.0000000000,176.0000000000,3.0000000000
1717675342660,10.0000000000,94.0000000000,489.0000000000,385.0000000000,175.0000000000,3.0000000000
1717675342661,12.0000000000,94.0000000000,486.0000000000,382.0000000000,174.0000000000,2.0000000000
1717675342663,12.0000000000,93.0000000000,482.0000000000,379.0000000000,172.0000000000,2.0000000000
1717675342664,11.0000000000,92.0000000000,479.0000000000,376.0000000000,172.0000000000,2.0000000000
1717675342666,11.0000000000,92.0000000000,476.0000000000,374.0000000000,171.0000000000,2.0000000000
1717675342666,12.0000000000,92.0000000000,472.0000000000,370.0000000000,169.0000000000,2.0000000000
1717675342666,11.0000000000,91.0000000000,468.0000000000,368.0000000000,169.0000000000,2.0000000000
1717675342667,11.0000000000,90.0000000000,465.0000000000,365.0000000000,167.0000000000,2.0000000000
1717675342667,12.0000000000,89.0000000000,462.0000000000,361.0000000000,167.0000000000,2.0000000000
1717675342667,11.0000000000,88.0000000000,546.0000000000,359.0000000000,166.0000000000,2.0000000000
1717675342667,12.0000000000,88.0000000000,547.0000000000,356.0000000000,165.0000000000,2.0000000000
1717675342667,11.0000000000,88.0000000000,543.0000000000,354.0000000000,164.0000000000,2.0000000000
1717675342683,12.0000000000,88.0000000000,537.0000000000,352.0000000000,163.0000000000,3.0000000000
1717675342684,11.0000000000,88.0000000000,534.0000000000,349.0000000000,163.0000000000,2.0000000000
1717675342684,11.0000000000,87.0000000000,529.0000000000,347.0000000000,161.0000000000,2.0000000000
1717675342684,11.0000000000,86.0000000000,526.0000000000,344.0000000000,160.0000000000,1.0000000000
1717675342685,11.0000000000,85.0000000000,520.0000000000,342.0000000000,159.0000000000,1.0000000000
1717675342685,11.0000000000,85.0000000000,515.0000000000,450.0000000000,159.0000000000,2.0000000000
1717675342685,11.0000000000,84.0000000000,512.0000000000,444.0000000000,158.0000000000,2.0000000000
1717675342685,11.0000000000,83.0000000000,508.0000000000,440.0000000000,156.0000000000,1.0000000000
1717675342685,11.0000000000,83.0000000000,504.0000000000,436.0000000000,156.0000000000,3.0000000000
1717675342685,10.0000000000,83.0000000000,499.0000000000,433.0000000000,155.0000000000,4.0000000000
1717675342686,10.0000000000,83.0000000000,495.0000000000,430.0000000000,154.0000000000,4.0000000000
1717675342686,10.0000000000,82.0000000000,492.0000000000,480.0000000000,153.0000000000,3.0000000000
1717675342700,11.0000000000,82.0000000000,487.0000000000,475.0000000000,152.0000000000,4.0000000000
1717675342701,11.0000000000,81.0000000000,484.0000000000,471.0000000000,152.0000000000,4.0000000000
1717675342701,11.0000000000,80.0000000000,480.0000000000,467.0000000000,151.0000000000,3.0000000000
1717675342701,11.0000000000,80.0000000000,477.0000000000,463.0000000000,150.0000000000,4.0000000000
1717675342701,10.0000000000,79.0000000000,473.0000000000,458.0000000000,150.0000000000,4.0000000000
1717675342701,11.0000000000,79.0000000000,492.0000000000,455.0000000000,148.0000000000,4.0000000000
1717675342701,11.0000000000,79.0000000000,487.0000000000,451.0000000000,147.0000000000,4.0000000000
1717675342701,11.0000000000,78.0000000000,483.0000000000,448.0000000000,147.0000000000,3.0000000000
1717675342701,11.0000000000,78.0000000000,480.0000000000,444.0000000000,145.0000000000,4.0000000000
1717675342717,10.0000000000,78.0000000000,476.0000000000,440.0000000000,145.0000000000,3.0000000000
1717675342718,10.0000000000,77.0000000000,472.0000000000,436.0000000000,143.0000000000,3.0000000000
1717675342718,11.0000000000,76.0000000000,469.0000000000,432.0000000000,143.0000000000,3.0000000000
1717675342718,14.0000000000,76.0000000000,465.0000000000,443.0000000000,143.0000000000,3.0000000000
1717675342718,14.0000000000,76.0000000000,463.0000000000,595.0000000000,142.0000000000,3.0000000000
1717675342718,14.0000000000,75.0000000000,476.0000000000,590.0000000000,141.0000000000,3.0000000000
1717675342718,13.0000000000,75.0000000000,472.0000000000,583.0000000000,140.0000000000,3.0000000000
1717675342719,14.0000000000,74.0000000000,468.0000000000,575.0000000000,140.0000000000,3.0000000000
1717675342719,14.0000000000,74.0000000000,463.0000000000,572.0000000000,139.0000000000,3.0000000000
1717675342736,13.0000000000,73.0000000000,461.0000000000,566.0000000000,139.0000000000,3.0000000000
1717675342736,13.0000000000,72.0000000000,457.0000000000,561.0000000000,137.0000000000,3.0000000000
1717675342737,13.0000000000,72.0000000000,454.0000000000,555.0000000000,137.0000000000,3.0000000000
1717675342737,13.0000000000,71.0000000000,451.0000000000,549.0000000000,135.0000000000,3.0000000000
1717675342737,13.0000000000,71.0000000000,455.0000000000,545.0000000000,135.0000000000,3.0000000000
1717675342737,12.0000000000,71.0000000000,487.0000000000,540.0000000000,135.0000000000,3.0000000000
1717675342737,13.0000000000,71.0000000000,483.0000000000,536.0000000000,134.0000000000,3.0000000000
1717675342737,13.0000000000,72.0000000000,483.0000000000,531.0000000000,133.0000000000,3.0000000000
1717675342737,12.0000000000,71.0000000000,478.0000000000,526.0000000000,132.0000000000,3.0000000000
1717675342738,12.0000000000,71.0000000000,473.0000000000,523.0000000000,131.0000000000,3.0000000000
1717675342738,12.0000000000,71.0000000000,470.0000000000,516.0000000000,131.0000000000,3.0000000000
1717675342752,12.0000000000,71.0000000000,466.0000000000,513.0000000000,131.0000000000,3.0000000000
1717675342753,12.0000000000,71.0000000000,551.0000000000,508.0000000000,129.0000000000,3.0000000000
1717675342753,12.0000000000,70.0000000000,615.0000000000,504.0000000000,129.0000000000,3.0000000000
1717675342753,12.0000000000,70.0000000000,608.0000000000,500.0000000000,127.0000000000,3.0000000000
1717675342753,12.0000000000,69.0000000000,603.0000000000,496.0000000000,127.0000000000,3.0000000000
1717675342753,12.0000000000,68.0000000000,596.0000000000,492.0000000000,127.0000000000,3.0000000000
1717675342754,12.0000000000,67.0000000000,591.0000000000,488.0000000000,127.0000000000,3.0000000000
1717675342754,12.0000000000,67.0000000000,585.0000000000,484.0000000000,126.0000000000,3.0000000000
1717675342754,12.0000000000,67.0000000000,579.0000000000,480.0000000000,125.0000000000,3.0000000000
1717675342771,11.0000000000,67.0000000000,575.0000000000,476.0000000000,124.0000000000,3.0000000000
1717675342772,12.0000000000,67.0000000000,571.0000000000,473.0000000000,164.0000000000,3.0000000000
1717675342772,11.0000000000,66.0000000000,566.0000000000,469.0000000000,163.0000000000,3.0000000000
1717675342772,11.0000000000,65.0000000000,560.0000000000,487.0000000000,161.0000000000,4.0000000000
1717675342772,11.0000000000,65.0000000000,556.0000000000,481.0000000000,159.0000000000,4.0000000000
1717675342772,11.0000000000,65.0000000000,551.0000000000,476.0000000000,159.0000000000,4.0000000000
1717675342773,11.0000000000,64.0000000000,547.0000000000,473.0000000000,158.0000000000,3.0000000000
1717675342773,11.0000000000,63.0000000000,543.0000000000,469.0000000000,157.0000000000,3.0000000000
1717675342773,11.0000000000,63.0000000000,537.0000000000,466.0000000000,156.0000000000,4.0000000000
1717675342773,11.0000000000,63.0000000000,534.0000000000,462.0000000000,155.0000000000,3.0000000000
1717675342794,11.0000000000,109.0000000000,529.0000000000,457.0000000000,153.0000000000,3.0000000000
1717675342794,10.0000000000,108.0000000000,524.0000000000,455.0000000000,152.0000000000,3.0000000000
1717675342795,11.0000000000,107.0000000000,519.0000000000,451.0000000000,152.0000000000,4.0000000000
1717675342795,11.0000000000,107.0000000000,516.0000000000,447.0000000000,152.0000000000,3.0000000000
1717675342795,11.0000000000,105.0000000000,512.0000000000,444.0000000000,150.0000000000,3.0000000000
1717675342795,9.0000000000,105.0000000000,508.0000000000,440.0000000000,149.0000000000,3.0000000000
1717675342795,10.0000000000,103.0000000000,504.0000000000,437.0000000000,148.0000000000,3.0000000000
1717675342795,12.0000000000,103.0000000000,500.0000000000,433.0000000000,147.0000000000,3.0000000000
1717675342795,12.0000000000,103.0000000000,496.0000000000,430.0000000000,146.0000000000,3.0000000000
1717675342796,12.0000000000,102.0000000000,492.0000000000,428.0000000000,145.0000000000,3.0000000000
1717675342796,12.0000000000,102.0000000000,487.0000000000,423.0000000000,145.0000000000,3.0000000000
1717675342796,12.0000000000,100.0000000000,485.0000000000,420.0000000000,144.0000000000,3.0000000000
1717675342796,12.0000000000,100.0000000000,481.0000000000,507.0000000000,143.0000000000,3.0000000000
1717675342812,12.0000000000,99.0000000000,476.0000000000,502.0000000000,142.0000000000,3.0000000000
1717675342813,12.0000000000,98.0000000000,473.0000000000,496.0000000000,142.0000000000,3.0000000000
1717675342813,12.0000000000,98.0000000000,470.0000000000,492.0000000000,140.0000000000,3.0000000000
1717675342813,11.0000000000,97.0000000000,467.0000000000,487.0000000000,140.0000000000,3.0000000000
1717675342813,17.0000000000,97.0000000000,463.0000000000,483.0000000000,139.0000000000,4.0000000000
1717675342813,19.0000000000,96.0000000000,518.0000000000,480.0000000000,137.0000000000,4.0000000000
1717675342813,19.0000000000,96.0000000000,574.0000000000,475.0000000000,137.0000000000,4.0000000000
1717675342813,19.0000000000,95.0000000000,568.0000000000,472.0000000000,135.0000000000,3.0000000000
1717675342813,19.0000000000,95.0000000000,563.0000000000,467.0000000000,135.0000000000,4.0000000000
1717675342828,19.0000000000,94.0000000000,557.0000000000,463.0000000000,135.0000000000,3.0000000000
1717675342829,19.0000000000,93.0000000000,551.0000000000,460.0000000000,134.0000000000,3.0000000000
1717675342829,19.0000000000,93.0000000000,547.0000000000,455.0000000000,134.0000000000,3.0000000000
1717675342829,19.0000000000,92.0000000000,596.0000000000,453.0000000000,132.0000000000,4.0000000000
1717675342829,19.0000000000,92.0000000000,652.0000000000,448.0000000000,132.0000000000,3.0000000000
1717675342829,18.0000000000,92.0000000000,644.0000000000,446.0000000000,131.0000000000,3.0000000000
1717675342829,19.0000000000,91.0000000000,639.0000000000,441.0000000000,131.0000000000,4.0000000000
1717675342830,19.0000000000,89.0000000000,632.0000000000,438.0000000000,129.0000000000,3.0000000000
1717675342830,19.0000000000,89.0000000000,625.0000000000,499.0000000000,129.0000000000,3.0000000000
1717675342844,19.0000000000,89.0000000000,620.0000000000,494.0000000000,127.0000000000,3.0000000000
1717675342845,18.0000000000,88.0000000000,614.0000000000,491.0000000000,128.0000000000,3.0000000000
1717675342845,18.0000000000,88.0000000000,609.0000000000,486.0000000000,127.0000000000,3.0000000000
1717675342845,18.0000000000,88.0000000000,604.0000000000,481.0000000000,127.0000000000,3.0000000000
1717675342845,18.0000000000,87.0000000000,598.0000000000,478.0000000000,127.0000000000,3.0000000000
1717675342845,17.0000000000,87.0000000000,592.0000000000,472.0000000000,126.0000000000,3.0000000000
1717675342846,17.0000000000,86.0000000000,587.0000000000,470.0000000000,125.0000000000,3.0000000000
1717675342846,17.0000000000,86.0000000000,583.0000000000,465.0000000000,124.0000000000,3.0000000000
1717675342846,17.0000000000,85.0000000000,576.0000000000,462.0000000000,123.0000000000,3.0000000000
1717675342861,17.0000000000,84.0000000000,572.0000000000,457.0000000000,123.0000000000,3.0000000000
1717675342864,17.0000000000,84.0000000000,568.0000000000,454.0000000000,123.0000000000,3.0000000000
1717675342865,17.0000000000,84.0000000000,587.0000000000,451.0000000000,121.0000000000,3.0000000000
1717675342865,17.0000000000,83.0000000000,582.0000000000,447.0000000000,121.0000000000,3.0000000000
1717675342866,16.0000000000,82.0000000000,575.0000000000,444.0000000000,120.0000000000,3.0000000000
1717675342866,16.0000000000,82.0000000000,572.0000000000,440.0000000000,120.0000000000,3.0000000000
1717675342867,16.0000000000,101.0000000000,566.0000000000,435.0000000000,120.0000000000,3.0000000000
1717675342867,17.0000000000,100.0000000000,560.0000000000,433.0000000000,119.0000000000,3.0000000000
1717675342867,16.0000000000,99.0000000000,556.0000000000,430.0000000000,118.0000000000,3.0000000000
1717675342868,16.0000000000,99.0000000000,551.0000000000,455.0000000000,117.0000000000,3.0000000000
1717675342868,16.0000000000,98.0000000000,546.0000000000,476.0000000000,116.0000000000,3.0000000000
1717675342868,15.0000000000,97.0000000000,543.0000000000,472.0000000000,115.0000000000,3.0000000000
1717675342894,15.0000000000,97.0000000000,537.0000000000,467.0000000000,115.0000000000,3.0000000000
1717675342895,15.0000000000,96.0000000000,533.0000000000,463.0000000000,115.0000000000,3.0000000000
1717675342895,15.0000000000,96.0000000000,529.0000000000,459.0000000000,115.0000000000,3.0000000000
1717675342895,15.0000000000,95.0000000000,525.0000000000,455.0000000000,114.0000000000,3.0000000000
1717675342895,15.0000000000,95.0000000000,579.0000000000,451.0000000000,113.0000000000,3.0000000000
1717675342895,15.0000000000,94.0000000000,636.0000000000,448.0000000000,112.0000000000,3.0000000000
1717675342895,15.0000000000,94.0000000000,630.0000000000,444.0000000000,112.0000000000,3.0000000000
1717675342895,15.0000000000,92.0000000000,623.0000000000,440.0000000000,112.0000000000,3.0000000000
1717675342896,15.0000000000,92.0000000000,616.0000000000,438.0000000000,111.0000000000,3.0000000000
1717675342896,15.0000000000,92.0000000000,611.0000000000,433.0000000000,111.0000000000,3.0000000000
1717675342896,15.0000000000,91.0000000000,605.0000000000,431.0000000000,110.0000000000,3.0000000000
1717675342896,15.0000000000,91.0000000000,600.0000000000,427.0000000000,110.0000000000,3.0000000000
1717675342896,14.0000000000,90.0000000000,595.0000000000,423.0000000000,109.0000000000,3.0000000000
1717675342896,14.0000000000,89.0000000000,589.0000000000,420.0000000000,108.0000000000,3.0000000000
1717675342896,14.0000000000,88.0000000000,584.0000000000,417.0000000000,108.0000000000,2.0000000000
1717675342896,14.0000000000,88.0000000000,579.0000000000,414.0000000000,107.0000000000,3.0000000000
1717675342910,14.0000000000,88.0000000000,575.0000000000,411.0000000000,107.0000000000,2.0000000000
1717675342911,14.0000000000,88.0000000000,569.0000000000,408.0000000000,107.0000000000,3.0000000000
1717675342911,14.0000000000,87.0000000000,563.0000000000,406.0000000000,105.0000000000,3.0000000000
1717675342911,14.0000000000,86.0000000000,567.0000000000,402.0000000000,105.0000000000,3.0000000000
1717675342911,14.0000000000,86.0000000000,561.0000000000,399.0000000000,103.0000000000,2.0000000000
1717675342911,13.0000000000,85.0000000000,556.0000000000,396.0000000000,103.0000000000,2.0000000000
1717675342912,14.0000000000,85.0000000000,551.0000000000,395.0000000000,103.0000000000,2.0000000000
1717675342912,15.0000000000,84.0000000000,548.0000000000,391.0000000000,105.0000000000,2.0000000000
1717675342912,15.0000000000,83.0000000000,543.0000000000,388.0000000000,103.0000000000,2.0000000000
1717675342929,15.0000000000,83.0000000000,539.0000000000,387.0000000000,103.0000000000,2.0000000000
1717675342930,15.0000000000,83.0000000000,535.0000000000,384.0000000000,103.0000000000,2.0000000000
1717675342930,15.0000000000,82.0000000000,530.0000000000,387.0000000000,166.0000000000,2.0000000000
1717675342930,15.0000000000,82.0000000000,526.0000000000,384.0000000000,163.0000000000,2.0000000000
1717675342930,15.0000000000,81.0000000000,521.0000000000,380.0000000000,163.0000000000,2.0000000000
1717675342931,15.0000000000,81.0000000000,517.0000000000,377.0000000000,161.0000000000,2.0000000000
1717675342931,14.0000000000,79.0000000000,513.0000000000,375.0000000000,160.0000000000,2.0000000000
1717675342931,15.0000000000,79.0000000000,510.0000000000,372.0000000000,159.0000000000,3.0000000000
1717675342931,22.0000000000,79.0000000000,507.0000000000,369.0000000000,159.0000000000,3.0000000000
1717675342931,21.0000000000,79.0000000000,503.0000000000,368.0000000000,157.0000000000,4.0000000000
1717675342932,22.0000000000,78.0000000000,499.0000000000,365.0000000000,156.0000000000,3.0000000000
1717675342951,21.0000000000,78.0000000000,510.0000000000,363.0000000000,156.0000000000,3.0000000000
1717675342952,21.0000000000,77.0000000000,574.0000000000,359.0000000000,154.0000000000,3.0000000000
1717675342952,21.0000000000,76.0000000000,568.0000000000,358.0000000000,153.0000000000,3.0000000000
1717675342953,20.0000000000,76.0000000000,563.0000000000,356.0000000000,152.0000000000,3.0000000000
1717675342953,21.0000000000,76.0000000000,559.0000000000,353.0000000000,152.0000000000,3.0000000000
1717675342954,20.0000000000,76.0000000000,553.0000000000,351.0000000000,151.0000000000,3.0000000000
1717675342954,20.0000000000,75.0000000000,547.0000000000,349.0000000000,150.0000000000,3.0000000000
1717675342955,19.0000000000,75.0000000000,543.0000000000,347.0000000000,148.0000000000,3.0000000000
1717675342956,20.0000000000,75.0000000000,539.0000000000,344.0000000000,147.0000000000,3.0000000000
1717675342956,20.0000000000,74.0000000000,535.0000000000,343.0000000000,147.0000000000,3.0000000000
1717675342957,19.0000000000,73.0000000000,530.0000000000,340.0000000000,146.0000000000,3.0000000000
1717675342957,19.0000000000,73.0000000000,525.0000000000,363.0000000000,145.0000000000,3.0000000000
1717675342958,19.0000000000,72.0000000000,521.0000000000,359.0000000000,144.0000000000,3.0000000000
1717675342958,19.0000000000,72.0000000000,516.0000000000,358.0000000000,143.0000000000,3.0000000000
1717675342959,19.0000000000,71.0000000000,513.0000000000,355.0000000000,143.0000000000,3.0000000000
1717675342960,19.0000000000,71.0000000000,508.0000000000,352.0000000000,151.0000000000,3.0000000000
1717675342990,19.0000000000,71.0000000000,504.0000000000,413.0000000000,150.0000000000,3.0000000000
1717675342990,19.0000000000,71.0000000000,500.0000000000,449.0000000000,148.0000000000,3.0000000000
1717675342990,19.0000000000,71.0000000000,496.0000000000,446.0000000000,147.0000000000,3.0000000000
1717675342990,19.0000000000,70.0000000000,493.0000000000,441.0000000000,147.0000000000,3.0000000000
1717675342991,19.0000000000,70.0000000000,489.0000000000,440.0000000000,146.0000000000,3.0000000000
1717675342991,20.0000000000,70.0000000000,486.0000000000,434.0000000000,145.0000000000,3.0000000000
1717675342991,19.0000000000,68.0000000000,482.0000000000,431.0000000000,143.0000000000,3.0000000000
1717675342991,19.0000000000,67.0000000000,479.0000000000,428.0000000000,143.0000000000,3.0000000000
1717675342991,19.0000000000,68.0000000000,476.0000000000,423.0000000000,142.0000000000,3.0000000000
1717675342991,19.0000000000,68.0000000000,472.0000000000,421.0000000000,142.0000000000,3.0000000000
1717675342991,19.0000000000,67.0000000000,468.0000000000,417.0000000000,140.0000000000,2.0000000000
1717675342991,19.0000000000,67.0000000000,465.0000000000,414.0000000000,140.0000000000,3.0000000000
1717675342992,18.0000000000,67.0000000000,461.0000000000,411.0000000000,139.0000000000,3.0000000000
1717675342992,18.0000000000,66.0000000000,459.0000000000,408.0000000000,138.0000000000,3.0000000000
1717675342992,19.0000000000,66.0000000000,455.0000000000,404.0000000000,137.0000000000,3.0000000000
1717675342992,18.0000000000,65.0000000000,452.0000000000,401.0000000000,136.0000000000,3.0000000000
1717675342992,18.0000000000,65.0000000000,449.0000000000,399.0000000000,135.0000000000,3.0000000000
1717675342992,17.0000000000,64.0000000000,446.0000000000,396.0000000000,135.0000000000,3.0000000000
1717675342992,17.0000000000,63.0000000000,443.0000000000,391.0000000000,134.0000000000,3.0000000000
1717675343013,18.0000000000,63.0000000000,440.0000000000,390.0000000000,133.0000000000,3.0000000000
1717675343014,18.0000000000,86.0000000000,438.0000000000,387.0000000000,132.0000000000,3.0000000000
1717675343014,17.0000000000,115.0000000000,434.0000000000,384.0000000000,184.0000000000,3.0000000000
1717675343015,17.0000000000,115.0000000000,431.0000000000,381.0000000000,182.0000000000,2.0000000000
1717675343015,17.0000000000,113.0000000000,428.0000000000,377.0000000000,179.0000000000,3.0000000000
1717675343015,17.0000000000,112.0000000000,425.0000000000,376.0000000000,179.0000000000,2.0000000000
1717675343015,17.0000000000,112.0000000000,422.0000000000,371.0000000000,178.0000000000,3.0000000000
1717675343015,19.0000000000,112.0000000000,419.0000000000,369.0000000000,176.0000000000,2.0000000000
1717675343016,20.0000000000,111.0000000000,415.0000000000,367.0000000000,176.0000000000,2.0000000000
1717675343017,19.0000000000,111.0000000000,414.0000000000,364.0000000000,174.0000000000,2.0000000000
1717675343017,19.0000000000,110.0000000000,411.0000000000,361.0000000000,173.0000000000,2.0000000000
1717675343017,19.0000000000,110.0000000000,408.0000000000,359.0000000000,172.0000000000,2.0000000000
1717675343017,19.0000000000,108.0000000000,406.0000000000,356.0000000000,171.0000000000,2.0000000000
1717675343035,19.0000000000,108.0000000000,403.0000000000,353.0000000000,170.0000000000,2.0000000000
1717675343036,19.0000000000,108.0000000000,399.0000000000,352.0000000000,168.0000000000,2.0000000000
1717675343036,19.0000000000,107.0000000000,396.0000000000,348.0000000000,167.0000000000,3.0000000000
1717675343037,19.0000000000,105.0000000000,393.0000000000,346.0000000000,167.0000000000,2.0000000000
1717675343037,19.0000000000,104.0000000000,391.0000000000,344.0000000000,166.0000000000,3.0000000000
1717675343037,19.0000000000,103.0000000000,471.0000000000,342.0000000000,164.0000000000,3.0000000000
1717675343037,19.0000000000,103.0000000000,466.0000000000,339.0000000000,163.0000000000,3.0000000000
1717675343038,18.0000000000,103.0000000000,462.0000000000,337.0000000000,162.0000000000,3.0000000000
1717675343039,19.0000000000,102.0000000000,458.0000000000,335.0000000000,161.0000000000,2.0000000000
1717675343039,18.0000000000,102.0000000000,454.0000000000,332.0000000000,160.0000000000,3.0000000000
1717675343039,18.0000000000,101.0000000000,450.0000000000,331.0000000000,187.0000000000,2.0000000000
1717675343100,18.0000000000,100.0000000000,447.0000000000,327.0000000000,184.0000000000,2.0000000000
1717675343101,18.0000000000,99.0000000000,443.0000000000,326.0000000000,184.0000000000,2.0000000000
1717675343101,17.0000000000,99.0000000000,440.0000000000,324.0000000000,183.0000000000,2.0000000000
1717675343102,17.0000000000,98.0000000000,436.0000000000,322.0000000000,182.0000000000,2.0000000000
1717675343102,19.0000000000,97.0000000000,433.0000000000,319.0000000000,180.0000000000,2.0000000000
1717675343102,19.0000000000,97.0000000000,429.0000000000,319.0000000000,179.0000000000,2.0000000000
1717675343102,19.0000000000,97.0000000000,427.0000000000,316.0000000000,178.0000000000,2.0000000000
1717675343102,19.0000000000,96.0000000000,423.0000000000,315.0000000000,177.0000000000,2.0000000000
1717675343102,18.0000000000,96.0000000000,420.0000000000,312.0000000000,176.0000000000,2.0000000000
1717675343103,18.0000000000,95.0000000000,417.0000000000,311.0000000000,174.0000000000,2.0000000000
1717675343103,18.0000000000,95.0000000000,414.0000000000,308.0000000000,173.0000000000,2.0000000000
1717675343103,18.0000000000,94.0000000000,411.0000000000,307.0000000000,172.0000000000,2.0000000000
1717675343103,18.0000000000,93.0000000000,408.0000000000,305.0000000000,171.0000000000,2.0000000000
1717675343103,17.0000000000,92.0000000000,406.0000000000,371.0000000000,170.0000000000,1.0000000000
1717675343103,17.0000000000,92.0000000000,403.0000000000,368.0000000000,169.0000000000,2.0000000000
1717675343103,17.0000000000,92.0000000000,399.0000000000,364.0000000000,167.0000000000,2.0000000000
1717675343104,17.0000000000,91.0000000000,397.0000000000,361.0000000000,167.0000000000,2.0000000000
1717675343104,17.0000000000,91.0000000000,394.0000000000,361.0000000000,240.0000000000,2.0000000000
1717675343104,17.0000000000,91.0000000000,391.0000000000,430.0000000000,239.0000000000,2.0000000000
1717675343104,16.0000000000,89.0000000000,389.0000000000,427.0000000000,236.0000000000,2.0000000000
1717675343104,17.0000000000,89.0000000000,387.0000000000,422.0000000000,235.0000000000,2.0000000000
1717675343105,17.0000000000,88.0000000000,384.0000000000,418.0000000000,233.0000000000,2.0000000000
1717675343105,16.0000000000,88.0000000000,382.0000000000,476.0000000000,231.0000000000,2.0000000000
1717675343105,16.0000000000,88.0000000000,380.0000000000,471.0000000000,230.0000000000,1.0000000000
1717675343105,15.0000000000,87.0000000000,376.0000000000,467.0000000000,227.0000000000,1.0000000000
1717675343105,16.0000000000,86.0000000000,375.0000000000,463.0000000000,227.0000000000,1.0000000000
1717675343105,16.0000000000,86.0000000000,372.0000000000,459.0000000000,225.0000000000,2.0000000000
1717675343106,15.0000000000,86.0000000000,370.0000000000,455.0000000000,224.0000000000,1.0000000000
1717675343106,16.0000000000,95.0000000000,368.0000000000,451.0000000000,223.0000000000,1.0000000000
1717675343106,15.0000000000,94.0000000000,366.0000000000,448.0000000000,221.0000000000,1.0000000000
1717675343106,15.0000000000,94.0000000000,364.0000000000,443.0000000000,220.0000000000,2.0000000000
1717675343106,15.0000000000,92.0000000000,361.0000000000,440.0000000000,219.0000000000,1.0000000000
1717675343106,15.0000000000,92.0000000000,359.0000000000,436.0000000000,216.0000000000,1.0000000000
1717675343107,15.0000000000,92.0000000000,357.0000000000,432.0000000000,216.0000000000,1.0000000000
1717675343107,15.0000000000,92.0000000000,355.0000000000,430.0000000000,214.0000000000,1.0000000000
1717675343107,15.0000000000,91.0000000000,353.0000000000,425.0000000000,213.0000000000,1.0000000000
1717675343107,15.0000000000,90.0000000000,351.0000000000,423.0000000000,211.0000000000,1.0000000000
1717675343107,15.0000000000,89.0000000000,349.0000000000,419.0000000000,210.0000000000,1.0000000000
1717675343108,15.0000000000,89.0000000000,347.0000000000,415.0000000000,209.0000000000,1.0000000000
1717675343132,15.0000000000,88.0000000000,344.0000000000,413.0000000000,207.0000000000,1.0000000000
1717675343134,15.0000000000,88.0000000000,343.0000000000,409.0000000000,207.0000000000,1.0000000000
1717675343135,15.0000000000,88.0000000000,340.0000000000,408.0000000000,206.0000000000,1.0000000000
1717675343135,15.0000000000,87.0000000000,339.0000000000,403.0000000000,204.0000000000,1.0000000000
1717675343136,14.0000000000,86.0000000000,336.0000000000,401.0000000000,203.0000000000,1.0000000000
1717675343136,15.0000000000,86.0000000000,335.0000000000,398.0000000000,201.0000000000,1.0000000000
1717675343137,14.0000000000,86.0000000000,332.0000000000,395.0000000000,199.0000000000,1.0000000000
1717675343137,14.0000000000,85.0000000000,331.0000000000,391.0000000000,199.0000000000,1.0000000000
1717675343138,14.0000000000,83.0000000000,329.0000000000,389.0000000000,199.0000000000,1.0000000000
1717675343138,14.0000000000,83.0000000000,327.0000000000,386.0000000000,197.0000000000,1.0000000000
1717675343139,14.0000000000,83.0000000000,325.0000000000,384.0000000000,196.0000000000,1.0000000000
1717675343139,14.0000000000,83.0000000000,323.0000000000,380.0000000000,195.0000000000,1.0000000000
1717675343139,14.0000000000,82.0000000000,321.0000000000,379.0000000000,193.0000000000,1.0000000000
1717675343140,14.0000000000,81.0000000000,319.0000000000,376.0000000000,192.0000000000,1.0000000000
1717675343141,14.0000000000,81.0000000000,319.0000000000,373.0000000000,192.0000000000,1.0000000000
1717675343142,13.0000000000,81.0000000000,317.0000000000,371.0000000000,191.0000000000,1.0000000000
1717675343142,14.0000000000,80.0000000000,315.0000000000,368.0000000000,190.0000000000,1.0000000000
1717675343143,13.0000000000,79.0000000000,312.0000000000,365.0000000000,188.0000000000,1.0000000000
1717675343144,14.0000000000,79.0000000000,312.0000000000,363.0000000000,188.0000000000,1.0000000000
1717675343144,14.0000000000,79.0000000000,310.0000000000,359.0000000000,186.0000000000,1.0000000000
1717675343144,14.0000000000,78.0000000000,308.0000000000,358.0000000000,185.0000000000,1.0000000000
1717675343172,14.0000000000,78.0000000000,305.0000000000,355.0000000000,184.0000000000,1.0000000000
1717675343173,14.0000000000,78.0000000000,304.0000000000,353.0000000000,183.0000000000,1.0000000000
1717675343173,13.0000000000,77.0000000000,303.0000000000,350.0000000000,182.0000000000,1.0000000000
1717675343173,14.0000000000,77.0000000000,301.0000000000,348.0000000000,181.0000000000,1.0000000000
1717675343173,13.0000000000,76.0000000000,300.0000000000,346.0000000000,179.0000000000,1.0000000000
1717675343173,13.0000000000,76.0000000000,298.0000000000,344.0000000000,179.0000000000,1.0000000000
1717675343173,13.0000000000,76.0000000000,295.0000000000,342.0000000000,178.0000000000,1.0000000000
1717675343174,13.0000000000,75.0000000000,295.0000000000,339.0000000000,177.0000000000,1.0000000000
1717675343174,14.0000000000,74.0000000000,293.0000000000,337.0000000000,176.0000000000,1.0000000000
1717675343174,13.0000000000,74.0000000000,388.0000000000,335.0000000000,176.0000000000,1.0000000000
1717675343174,22.0000000000,74.0000000000,435.0000000000,333.0000000000,174.0000000000,1.0000000000
1717675343174,49.0000000000,73.0000000000,432.0000000000,331.0000000000,174.0000000000,1.0000000000
1717675343174,49.0000000000,72.0000000000,428.0000000000,376.0000000000,172.0000000000,1.0000000000
1717675343175,48.0000000000,72.0000000000,423.0000000000,374.0000000000,172.0000000000,1.0000000000
1717675343175,48.0000000000,71.0000000000,420.0000000000,371.0000000000,171.0000000000,1.0000000000
1717675343175,47.0000000000,71.0000000000,417.0000000000,368.0000000000,169.0000000000,1.0000000000
1717675343219,47.0000000000,71.0000000000,415.0000000000,365.0000000000,167.0000000000,1.0000000000
1717675343220,47.0000000000,71.0000000000,412.0000000000,363.0000000000,167.0000000000,1.0000000000
1717675343220,47.0000000000,71.0000000000,408.0000000000,359.0000000000,167.0000000000,1.0000000000
1717675343221,46.0000000000,70.0000000000,405.0000000000,356.0000000000,166.0000000000,1.0000000000
1717675343221,46.0000000000,70.0000000000,401.0000000000,355.0000000000,164.0000000000,1.0000000000
1717675343221,45.0000000000,70.0000000000,399.0000000000,352.0000000000,163.0000000000,1.0000000000
1717675343221,45.0000000000,68.0000000000,396.0000000000,349.0000000000,163.0000000000,1.0000000000
1717675343221,45.0000000000,68.0000000000,393.0000000000,347.0000000000,162.0000000000,1.0000000000
1717675343221,44.0000000000,68.0000000000,391.0000000000,344.0000000000,161.0000000000,1.0000000000
1717675343222,44.0000000000,67.0000000000,387.0000000000,342.0000000000,159.0000000000,1.0000000000
1717675343222,44.0000000000,67.0000000000,385.0000000000,339.0000000000,159.0000000000,0.0000000000
1717675343222,44.0000000000,67.0000000000,423.0000000000,337.0000000000,158.0000000000,1.0000000000
1717675343222,44.0000000000,67.0000000000,472.0000000000,335.0000000000,158.0000000000,1.0000000000
1717675343222,43.0000000000,66.0000000000,467.0000000000,332.0000000000,157.0000000000,0.0000000000
1717675343222,43.0000000000,66.0000000000,462.0000000000,329.0000000000,156.0000000000,1.0000000000
1717675343222,42.0000000000,65.0000000000,459.0000000000,327.0000000000,156.0000000000,1.0000000000
1717675343222,42.0000000000,65.0000000000,455.0000000000,326.0000000000,154.0000000000,1.0000000000
1717675343223,41.0000000000,65.0000000000,451.0000000000,323.0000000000,153.0000000000,1.0000000000
1717675343223,41.0000000000,64.0000000000,497.0000000000,354.0000000000,153.0000000000,0.0000000000
1717675343223,41.0000000000,63.0000000000,540.0000000000,365.0000000000,152.0000000000,1.0000000000
1717675343223,41.0000000000,63.0000000000,536.0000000000,362.0000000000,151.0000000000,1.0000000000
1717675343223,41.0000000000,63.0000000000,530.0000000000,359.0000000000,151.0000000000,0.0000000000
1717675343224,40.0000000000,63.0000000000,527.0000000000,356.0000000000,150.0000000000,1.0000000000
1717675343224,39.0000000000,70.0000000000,521.0000000000,354.0000000000,148.0000000000,1.0000000000
1717675343224,39.0000000000,70.0000000000,516.0000000000,351.0000000000,147.0000000000,1.0000000000
1717675343224,39.0000000000,70.0000000000,513.0000000000,348.0000000000,147.0000000000,1.0000000000
1717675343225,39.0000000000,68.0000000000,508.0000000000,345.0000000000,147.0000000000,1.0000000000
1717675343245,39.0000000000,68.0000000000,504.0000000000,398.0000000000,145.0000000000,1.0000000000
1717675343246,39.0000000000,67.0000000000,499.0000000000,394.0000000000,145.0000000000,1.0000000000
1717675343246,39.0000000000,67.0000000000,497.0000000000,391.0000000000,143.0000000000,1.0000000000
1717675343246,39.0000000000,67.0000000000,492.0000000000,387.0000000000,143.0000000000,1.0000000000
1717675343247,38.0000000000,67.0000000000,487.0000000000,384.0000000000,143.0000000000,1.0000000000
1717675343247,38.0000000000,65.0000000000,485.0000000000,382.0000000000,142.0000000000,1.0000000000
1717675343247,38.0000000000,66.0000000000,481.0000000000,379.0000000000,141.0000000000,1.0000000000
1717675343247,38.0000000000,65.0000000000,478.0000000000,376.0000000000,140.0000000000,1.0000000000
1717675343248,37.0000000000,64.0000000000,473.0000000000,373.0000000000,140.0000000000,0.0000000000
1717675343248,37.0000000000,64.0000000000,470.0000000000,369.0000000000,139.0000000000,1.0000000000
1717675343248,37.0000000000,63.0000000000,467.0000000000,367.0000000000,139.0000000000,1.0000000000
1717675343249,37.0000000000,63.0000000000,575.0000000000,364.0000000000,137.0000000000,1.0000000000
1717675343249,36.0000000000,63.0000000000,572.0000000000,363.0000000000,137.0000000000,0.0000000000
1717675343249,36.0000000000,63.0000000000,566.0000000000,359.0000000000,135.0000000000,0.0000000000
1717675343269,35.0000000000,62.0000000000,560.0000000000,358.0000000000,135.0000000000,1.0000000000
1717675343270,35.0000000000,62.0000000000,556.0000000000,355.0000000000,135.0000000000,1.0000000000
1717675343270,35.0000000000,62.0000000000,550.0000000000,352.0000000000,134.0000000000,1.0000000000
1717675343270,35.0000000000,61.0000000000,546.0000000000,358.0000000000,134.0000000000,0.0000000000
1717675343270,35.0000000000,61.0000000000,541.0000000000,355.0000000000,224.0000000000,0.0000000000
1717675343270,35.0000000000,137.0000000000,536.0000000000,352.0000000000,222.0000000000,1.0000000000
1717675343271,35.0000000000,135.0000000000,531.0000000000,349.0000000000,220.0000000000,1.0000000000
1717675343271,34.0000000000,134.0000000000,527.0000000000,347.0000000000,219.0000000000,0.0000000000
1717675343271,34.0000000000,132.0000000000,521.0000000000,344.0000000000,217.0000000000,0.0000000000
1717675343271,33.0000000000,131.0000000000,518.0000000000,342.0000000000,216.0000000000,1.0000000000
1717675343271,33.0000000000,131.0000000000,514.0000000000,339.0000000000,215.0000000000,1.0000000000
1717675343271,33.0000000000,130.0000000000,510.0000000000,335.0000000000,212.0000000000,0.0000000000
1717675343272,33.0000000000,129.0000000000,505.0000000000,335.0000000000,211.0000000000,1.0000000000
1717675343292,33.0000000000,127.0000000000,500.0000000000,431.0000000000,210.0000000000,0.0000000000
1717675343294,32.0000000000,127.0000000000,497.0000000000,425.0000000000,208.0000000000,0.0000000000
1717675343295,32.0000000000,126.0000000000,493.0000000000,420.0000000000,207.0000000000,0.0000000000
1717675343295,32.0000000000,125.0000000000,489.0000000000,417.0000000000,205.0000000000,1.0000000000
1717675343295,31.0000000000,125.0000000000,484.0000000000,414.0000000000,204.0000000000,0.0000000000
1717675343296,31.0000000000,124.0000000000,481.0000000000,409.0000000000,203.0000000000,0.0000000000
1717675343296,31.0000000000,123.0000000000,478.0000000000,406.0000000000,202.0000000000,1.0000000000
1717675343296,33.0000000000,122.0000000000,473.0000000000,403.0000000000,199.0000000000,2.0000000000
1717675343296,32.0000000000,121.0000000000,470.0000000000,399.0000000000,199.0000000000,1.0000000000
1717675343297,32.0000000000,120.0000000000,466.0000000000,396.0000000000,198.0000000000,2.0000000000
1717675343297,31.0000000000,120.0000000000,463.0000000000,393.0000000000,196.0000000000,2.0000000000
1717675343297,31.0000000000,120.0000000000,459.0000000000,390.0000000000,195.0000000000,2.0000000000
1717675343298,31.0000000000,119.0000000000,455.0000000000,387.0000000000,195.0000000000,2.0000000000
1717675343299,31.0000000000,118.0000000000,451.0000000000,384.0000000000,193.0000000000,1.0000000000
1717675343300,31.0000000000,116.0000000000,449.0000000000,380.0000000000,192.0000000000,1.0000000000
1717675343300,31.0000000000,166.0000000000,476.0000000000,377.0000000000,191.0000000000,2.0000000000
1717675343340,31.0000000000,164.0000000000,505.0000000000,376.0000000000,190.0000000000,2.0000000000
1717675343341,31.0000000000,162.0000000000,500.0000000000,372.0000000000,188.0000000000,2.0000000000
1717675343341,35.0000000000,161.0000000000,497.0000000000,380.0000000000,188.0000000000,2.0000000000
1717675343342,35.0000000000,159.0000000000,492.0000000000,377.0000000000,186.0000000000,2.0000000000
1717675343342,34.0000000000,159.0000000000,487.0000000000,374.0000000000,185.0000000000,2.0000000000
1717675343342,35.0000000000,158.0000000000,484.0000000000,371.0000000000,184.0000000000,1.0000000000
1717675343343,34.0000000000,156.0000000000,481.0000000000,368.0000000000,184.0000000000,1.0000000000
1717675343343,34.0000000000,156.0000000000,478.0000000000,365.0000000000,182.0000000000,2.0000000000
1717675343343,33.0000000000,155.0000000000,473.0000000000,363.0000000000,180.0000000000,1.0000000000
1717675343343,33.0000000000,153.0000000000,468.0000000000,359.0000000000,179.0000000000,1.0000000000
1717675343344,33.0000000000,152.0000000000,465.0000000000,357.0000000000,179.0000000000,1.0000000000
1717675343344,33.0000000000,152.0000000000,462.0000000000,355.0000000000,177.0000000000,2.0000000000
1717675343344,33.0000000000,150.0000000000,457.0000000000,352.0000000000,176.0000000000,1.0000000000
1717675343344,33.0000000000,150.0000000000,454.0000000000,350.0000000000,175.0000000000,2.0000000000
1717675343344,32.0000000000,148.0000000000,451.0000000000,347.0000000000,174.0000000000,1.0000000000
1717675343344,32.0000000000,147.0000000000,448.0000000000,344.0000000000,173.0000000000,1.0000000000
1717675343344,31.0000000000,147.0000000000,444.0000000000,343.0000000000,172.0000000000,1.0000000000
1717675343344,31.0000000000,146.0000000000,440.0000000000,339.0000000000,172.0000000000,1.0000000000
1717675343344,31.0000000000,145.0000000000,438.0000000000,337.0000000000,171.0000000000,1.0000000000
1717675343345,31.0000000000,143.0000000000,435.0000000000,411.0000000000,169.0000000000,4.0000000000
1717675343345,31.0000000000,143.0000000000,431.0000000000,408.0000000000,167.0000000000,4.0000000000
1717675343345,31.0000000000,142.0000000000,428.0000000000,403.0000000000,167.0000000000,4.0000000000
1717675343345,31.0000000000,142.0000000000,423.0000000000,399.0000000000,166.0000000000,6.0000000000
1717675343345,31.0000000000,140.0000000000,422.0000000000,396.0000000000,166.0000000000,5.0000000000
1717675343361,31.0000000000,140.0000000000,418.0000000000,393.0000000000,163.0000000000,5.0000000000
1717675343363,30.0000000000,139.0000000000,415.0000000000,391.0000000000,163.0000000000,6.0000000000
1717675343363,30.0000000000,137.0000000000,412.0000000000,387.0000000000,162.0000000000,6.0000000000
1717675343364,30.0000000000,135.0000000000,411.0000000000,384.0000000000,161.0000000000,6.0000000000
1717675343364,30.0000000000,135.0000000000,408.0000000000,380.0000000000,160.0000000000,5.0000000000
1717675343364,29.0000000000,135.0000000000,404.0000000000,378.0000000000,159.0000000000,5.0000000000
1717675343365,30.0000000000,134.0000000000,401.0000000000,376.0000000000,159.0000000000,5.0000000000
1717675343365,29.0000000000,134.0000000000,399.0000000000,371.0000000000,158.0000000000,5.0000000000
1717675343365,28.0000000000,132.0000000000,396.0000000000,368.0000000000,156.0000000000,5.0000000000
1717675343366,28.0000000000,132.0000000000,393.0000000000,366.0000000000,156.0000000000,4.0000000000
1717675343366,28.0000000000,131.0000000000,391.0000000000,364.0000000000,155.0000000000,5.0000000000
1717675343387,28.0000000000,130.0000000000,388.0000000000,359.0000000000,154.0000000000,4.0000000000
1717675343388,28.0000000000,129.0000000000,385.0000000000,358.0000000000,153.0000000000,4.0000000000
1717675343389,28.0000000000,129.0000000000,384.0000000000,355.0000000000,190.0000000000,5.0000000000
1717675343389,28.0000000000,127.0000000000,380.0000000000,353.0000000000,188.0000000000,5.0000000000
1717675343389,28.0000000000,127.0000000000,377.0000000000,350.0000000000,187.0000000000,4.0000000000
1717675343390,28.0000000000,126.0000000000,376.0000000000,347.0000000000,185.0000000000,4.0000000000
1717675343390,28.0000000000,126.0000000000,372.0000000000,345.0000000000,184.0000000000,4.0000000000
1717675343390,27.0000000000,124.0000000000,370.0000000000,342.0000000000,183.0000000000,4.0000000000
1717675343390,27.0000000000,124.0000000000,368.0000000000,339.0000000000,182.0000000000,4.0000000000
1717675343390,27.0000000000,124.0000000000,366.0000000000,337.0000000000,180.0000000000,4.0000000000
1717675343391,27.0000000000,123.0000000000,363.0000000000,335.0000000000,179.0000000000,4.0000000000
1717675343391,27.0000000000,122.0000000000,360.0000000000,332.0000000000,178.0000000000,4.0000000000
1717675343391,26.0000000000,121.0000000000,358.0000000000,330.0000000000,177.0000000000,4.0000000000
1717675343412,25.0000000000,120.0000000000,356.0000000000,327.0000000000,176.0000000000,4.0000000000
1717675343413,25.0000000000,123.0000000000,354.0000000000,326.0000000000,175.0000000000,4.0000000000
1717675343413,25.0000000000,122.0000000000,352.0000000000,323.0000000000,173.0000000000,4.0000000000
1717675343413,25.0000000000,121.0000000000,349.0000000000,321.0000000000,172.0000000000,4.0000000000
1717675343414,25.0000000000,120.0000000000,348.0000000000,319.0000000000,172.0000000000,3.0000000000
1717675343414,25.0000000000,120.0000000000,345.0000000000,316.0000000000,171.0000000000,3.0000000000
1717675343414,24.0000000000,119.0000000000,344.0000000000,315.0000000000,169.0000000000,4.0000000000
1717675343414,25.0000000000,118.0000000000,341.0000000000,312.0000000000,221.0000000000,4.0000000000
1717675343414,24.0000000000,118.0000000000,339.0000000000,311.0000000000,219.0000000000,5.0000000000
1717675343415,25.0000000000,143.0000000000,417.0000000000,329.0000000000,216.0000000000,4.0000000000
1717675343415,24.0000000000,143.0000000000,412.0000000000,327.0000000000,215.0000000000,4.0000000000
1717675343415,24.0000000000,142.0000000000,409.0000000000,324.0000000000,214.0000000000,4.0000000000
1717675343415,24.0000000000,141.0000000000,407.0000000000,321.0000000000,212.0000000000,4.0000000000
1717675343432,24.0000000000,140.0000000000,403.0000000000,319.0000000000,211.0000000000,4.0000000000
1717675343433,24.0000000000,139.0000000000,399.0000000000,317.0000000000,209.0000000000,4.0000000000
1717675343433,24.0000000000,139.0000000000,396.0000000000,315.0000000000,207.0000000000,4.0000000000
1717675343434,24.0000000000,137.0000000000,393.0000000000,312.0000000000,207.0000000000,3.0000000000
1717675343434,24.0000000000,135.0000000000,391.0000000000,310.0000000000,206.0000000000,4.0000000000
1717675343434,24.0000000000,135.0000000000,387.0000000000,308.0000000000,204.0000000000,3.0000000000
1717675343434,24.0000000000,135.0000000000,384.0000000000,306.0000000000,202.0000000000,4.0000000000
1717675343434,24.0000000000,134.0000000000,382.0000000000,304.0000000000,201.0000000000,4.0000000000
1717675343435,24.0000000000,132.0000000000,379.0000000000,302.0000000000,199.0000000000,4.0000000000
1717675343435,23.0000000000,131.0000000000,376.0000000000,300.0000000000,199.0000000000,3.0000000000
1717675343436,23.0000000000,131.0000000000,374.0000000000,298.0000000000,198.0000000000,3.0000000000
1717675343453,23.0000000000,131.0000000000,371.0000000000,295.0000000000,195.0000000000,4.0000000000
1717675343457,23.0000000000,129.0000000000,368.0000000000,295.0000000000,195.0000000000,3.0000000000
1717675343458,23.0000000000,128.0000000000,365.0000000000,293.0000000000,193.0000000000,3.0000000000
1717675343459,22.0000000000,127.0000000000,363.0000000000,291.0000000000,192.0000000000,3.0000000000
1717675343462,23.0000000000,127.0000000000,359.0000000000,289.0000000000,192.0000000000,3.0000000000
1717675343476,23.0000000000,126.0000000000,358.0000000000,287.0000000000,191.0000000000,3.0000000000
1717675343477,22.0000000000,125.0000000000,355.0000000000,286.0000000000,189.0000000000,4.0000000000
1717675343478,22.0000000000,124.0000000000,352.0000000000,284.0000000000,188.0000000000,3.0000000000
1717675343486,22.0000000000,124.0000000000,350.0000000000,283.0000000000,187.0000000000,3.0000000000
1717675343487,22.0000000000,123.0000000000,348.0000000000,280.0000000000,185.0000000000,3.0000000000
1717675343488,22.0000000000,123.0000000000,345.0000000000,279.0000000000,184.0000000000,3.0000000000
1717675343488,22.0000000000,121.0000000000,344.0000000000,278.0000000000,184.0000000000,3.0000000000
1717675343488,21.0000000000,120.0000000000,340.0000000000,275.0000000000,182.0000000000,3.0000000000
1717675343488,20.0000000000,120.0000000000,339.0000000000,274.0000000000,182.0000000000,3.0000000000
1717675343489,20.0000000000,120.0000000000,336.0000000000,272.0000000000,179.0000000000,4.0000000000
1717675343489,21.0000000000,119.0000000000,334.0000000000,271.0000000000,179.0000000000,5.0000000000
