timestamp,Channel 1,Channel 2,Channel 3,Channel 4,Channel 5,Channel 6
1717675330294,6.0000000000,0.0000000000,0.0000000000,36.0000000000,27.0000000000,0.0000000000
1717675330295,6.0000000000,0.0000000000,0.0000000000,36.0000000000,27.0000000000,0.0000000000
1717675330296,6.0000000000,0.0000000000,0.0000000000,36.0000000000,26.0000000000,0.0000000000
1717675330296,6.0000000000,0.0000000000,0.0000000000,36.0000000000,25.0000000000,0.0000000000
1717675330296,6.0000000000,0.0000000000,0.0000000000,36.0000000000,26.0000000000,0.0000000000
1717675330297,6.0000000000,0.0000000000,0.0000000000,36.0000000000,26.0000000000,0.0000000000
1717675330298,6.0000000000,0.0000000000,0.0000000000,35.0000000000,25.0000000000,0.0000000000
1717675330298,6.0000000000,0.0000000000,0.0000000000,35.0000000000,26.0000000000,0.0000000000
1717675330298,7.0000000000,0.0000000000,0.0000000000,35.0000000000,25.0000000000,0.0000000000
1717675330298,7.0000000000,0.0000000000,0.0000000000,35.0000000000,25.0000000000,0.0000000000
1717675330299,7.0000000000,0.0000000000,0.0000000000,35.0000000000,25.0000000000,0.0000000000
1717675330299,6.0000000000,0.0000000000,0.0000000000,35.0000000000,25.0000000000,0.0000000000
1717675330299,6.0000000000,0.0000000000,0.0000000000,35.0000000000,25.0000000000,0.0000000000
1717675330299,6.0000000000,0.0000000000,0.0000000000,34.0000000000,25.0000000000,0.0000000000
1717675330300,6.0000000000,0.0000000000,0.0000000000,34.0000000000,24.0000000000,0.0000000000
1717675330300,6.0000000000,0.0000000000,0.0000000000,34.0000000000,24.0000000000,0.0000000000
1717675330300,6.0000000000,0.0000000000,0.0000000000,33.0000000000,25.0000000000,0.0000000000
1717675330301,6.0000000000,0.0000000000,0.0000000000,34.0000000000,25.0000000000,0.0000000000
1717675330301,6.0000000000,0.0000000000,0.0000000000,34.0000000000,24.0000000000,0.0000000000
1717675330301,6.0000000000,0.0000000000,0.0000000000,33.0000000000,24.0000000000,0.0000000000
1717675330327,6.0000000000,0.0000000000,0.0000000000,33.0000000000,24.0000000000,0.0000000000
1717675330329,6.0000000000,0.0000000000,0.0000000000,33.0000000000,24.0000000000,0.0000000000
1717675330330,7.0000000000,0.0000000000,0.0000000000,33.0000000000,24.0000000000,0.0000000000
1717675330330,6.0000000000,0.0000000000,0.0000000000,33.0000000000,24.0000000000,0.0000000000
1717675330330,6.0000000000,0.0000000000,0.0000000000,33.0000000000,24.0000000000,0.0000000000
1717675330331,6.0000000000,0.0000000000,0.0000000000,33.0000000000,24.0000000000,0.0000000000
1717675330331,6.0000000000,0.0000000000,0.0000000000,32.0000000000,24.0000000000,0.0000000000
1717675330331,6.0000000000,0.0000000000,0.0000000000,32.0000000000,24.0000000000,0.0000000000
1717675330331,6.0000000000,0.0000000000,0.0000000000,32.0000000000,24.0000000000,0.0000000000
1717675330331,6.0000000000,0.0000000000,0.0000000000,32.0000000000,24.0000000000,0.0000000000
1717675330332,6.0000000000,0.0000000000,0.0000000000,32.0000000000,24.0000000000,0.0000000000
1717675330332,6.0000000000,0.0000000000,0.0000000000,31.0000000000,24.0000000000,0.0000000000
1717675330332,6.0000000000,0.0000000000,0.0000000000,31.0000000000,23.0000000000,0.0000000000
1717675330332,6.0000000000,0.0000000000,0.0000000000,31.0000000000,23.0000000000,0.0000000000
1717675330332,6.0000000000,0.0000000000,0.0000000000,31.0000000000,24.0000000000,0.0000000000
1717675330332,6.0000000000,0.0000000000,0.0000000000,63.0000000000,24.0000000000,0.0000000000
1717675330333,6.0000000000,0.0000000000,0.0000000000,79.0000000000,24.0000000000,0.0000000000
1717675330333,6.0000000000,0.0000000000,0.0000000000,77.0000000000,23.0000000000,0.0000000000
1717675330333,6.0000000000,0.0000000000,0.0000000000,77.0000000000,23.0000000000,0.0000000000
1717675330333,6.0000000000,0.0000000000,0.0000000000,77.0000000000,24.0000000000,0.0000000000
1717675330333,6.0000000000,0.0000000000,0.0000000000,76.0000000000,23.0000000000,0.0000000000
1717675330334,6.0000000000,0.0000000000,0.0000000000,76.0000000000,23.0000000000,0.0000000000
1717675330334,6.0000000000,0.0000000000,0.0000000000,76.0000000000,23.0000000000,0.0000000000
1717675330334,6.0000000000,0.0000000000,0.0000000000,75.0000000000,23.0000000000,0.0000000000
1717675330334,6.0000000000,0.0000000000,0.0000000000,75.0000000000,23.0000000000,0.0000000000
1717675330350,6.0000000000,0.0000000000,0.0000000000,74.0000000000,23.0000000000,0.0000000000
1717675330352,6.0000000000,0.0000000000,0.0000000000,73.0000000000,23.0000000000,0.0000000000
1717675330352,6.0000000000,0.0000000000,0.0000000000,73.0000000000,22.0000000000,0.0000000000
1717675330352,6.0000000000,0.0000000000,0.0000000000,73.0000000000,22.0000000000,0.0000000000
1717675330352,6.0000000000,0.0000000000,0.0000000000,73.0000000000,22.0000000000,0.0000000000
1717675330353,6.0000000000,0.0000000000,0.0000000000,72.0000000000,22.0000000000,0.0000000000
1717675330353,7.0000000000,0.0000000000,0.0000000000,71.0000000000,22.0000000000,0.0000000000
1717675330353,6.0000000000,0.0000000000,0.0000000000,71.0000000000,22.0000000000,0.0000000000
1717675330353,6.0000000000,0.0000000000,0.0000000000,71.0000000000,22.0000000000,0.0000000000
1717675330354,6.0000000000,0.0000000000,0.0000000000,71.0000000000,21.0000000000,0.0000000000
1717675330354,6.0000000000,0.0000000000,0.0000000000,71.0000000000,22.0000000000,0.0000000000
1717675330354,6.0000000000,0.0000000000,0.0000000000,70.0000000000,22.0000000000,0.0000000000
1717675330354,6.0000000000,0.0000000000,0.0000000000,70.0000000000,22.0000000000,0.0000000000
1717675330355,6.0000000000,0.0000000000,0.0000000000,70.0000000000,21.0000000000,0.0000000000
1717675330355,6.0000000000,0.0000000000,0.0000000000,70.0000000000,22.0000000000,0.0000000000
1717675330355,6.0000000000,0.0000000000,0.0000000000,69.0000000000,22.0000000000,0.0000000000
1717675330356,6.0000000000,0.0000000000,0.0000000000,68.0000000000,22.0000000000,0.0000000000
1717675330356,6.0000000000,0.0000000000,0.0000000000,68.0000000000,21.0000000000,0.0000000000
1717675330356,6.0000000000,0.0000000000,0.0000000000,68.0000000000,21.0000000000,0.0000000000
1717675330357,6.0000000000,0.0000000000,0.0000000000,68.0000000000,21.0000000000,0.0000000000
1717675330381,6.0000000000,0.0000000000,0.0000000000,67.0000000000,20.0000000000,0.0000000000
1717675330381,6.0000000000,0.0000000000,0.0000000000,67.0000000000,21.0000000000,0.0000000000
1717675330381,6.0000000000,0.0000000000,0.0000000000,67.0000000000,20.0000000000,0.0000000000
1717675330382,6.0000000000,0.0000000000,0.0000000000,67.0000000000,20.0000000000,0.0000000000
1717675330382,7.0000000000,0.0000000000,0.0000000000,67.0000000000,20.0000000000,0.0000000000
1717675330382,6.0000000000,0.0000000000,0.0000000000,67.0000000000,20.0000000000,0.0000000000
1717675330382,6.0000000000,0.0000000000,0.0000000000,66.0000000000,20.0000000000,0.0000000000
1717675330382,6.0000000000,0.0000000000,0.0000000000,65.0000000000,20.0000000000,0.0000000000
1717675330382,6.0000000000,0.0000000000,0.0000000000,65.0000000000,20.0000000000,0.0000000000
1717675330382,6.0000000000,0.0000000000,0.0000000000,65.0000000000,20.0000000000,0.0000000000
1717675330383,6.0000000000,0.0000000000,0.0000000000,65.0000000000,20.0000000000,0.0000000000
1717675330383,6.0000000000,0.0000000000,0.0000000000,64.0000000000,19.0000000000,0.0000000000
1717675330383,6.0000000000,0.0000000000,0.0000000000,63.0000000000,20.0000000000,0.0000000000
1717675330383,6.0000000000,0.0000000000,0.0000000000,63.0000000000,20.0000000000,0.0000000000
1717675330383,6.0000000000,0.0000000000,0.0000000000,63.0000000000,19.0000000000,0.0000000000
1717675330383,6.0000000000,0.0000000000,0.0000000000,63.0000000000,20.0000000000,0.0000000000
1717675330383,6.0000000000,0.0000000000,0.0000000000,63.0000000000,20.0000000000,0.0000000000
1717675330383,6.0000000000,0.0000000000,0.0000000000,63.0000000000,19.0000000000,0.0000000000
1717675330383,7.0000000000,0.0000000000,0.0000000000,63.0000000000,19.0000000000,0.0000000000
1717675330383,7.0000000000,0.0000000000,0.0000000000,62.0000000000,19.0000000000,0.0000000000
1717675330383,6.0000000000,0.0000000000,0.0000000000,62.0000000000,19.0000000000,0.0000000000
1717675330383,7.0000000000,0.0000000000,0.0000000000,62.0000000000,19.0000000000,0.0000000000
1717675330401,6.0000000000,0.0000000000,0.0000000000,62.0000000000,19.0000000000,0.0000000000
1717675330402,6.0000000000,0.0000000000,0.0000000000,61.0000000000,20.0000000000,0.0000000000
1717675330402,6.0000000000,0.0000000000,0.0000000000,60.0000000000,21.0000000000,0.0000000000
1717675330402,6.0000000000,0.0000000000,0.0000000000,60.0000000000,21.0000000000,0.0000000000
1717675330402,6.0000000000,0.0000000000,0.0000000000,60.0000000000,21.0000000000,0.0000000000
1717675330402,6.0000000000,0.0000000000,0.0000000000,60.0000000000,21.0000000000,0.0000000000
1717675330403,6.0000000000,0.0000000000,0.0000000000,60.0000000000,20.0000000000,0.0000000000
1717675330403,6.0000000000,0.0000000000,0.0000000000,60.0000000000,20.0000000000,0.0000000000
1717675330403,6.0000000000,0.0000000000,0.0000000000,59.0000000000,20.0000000000,0.0000000000
1717675330403,6.0000000000,0.0000000000,0.0000000000,60.0000000000,20.0000000000,0.0000000000
1717675330404,6.0000000000,0.0000000000,0.0000000000,59.0000000000,20.0000000000,0.0000000000
1717675330404,6.0000000000,0.0000000000,0.0000000000,59.0000000000,20.0000000000,0.0000000000
1717675330404,6.0000000000,0.0000000000,0.0000000000,58.0000000000,20.0000000000,0.0000000000
1717675330404,6.0000000000,0.0000000000,0.0000000000,57.0000000000,20.0000000000,0.0000000000
1717675330404,6.0000000000,0.0000000000,0.0000000000,57.0000000000,19.0000000000,0.0000000000
1717675330404,6.0000000000,0.0000000000,0.0000000000,57.0000000000,19.0000000000,0.0000000000
1717675330425,6.0000000000,0.0000000000,0.0000000000,75.0000000000,20.0000000000,0.0000000000
1717675330426,6.0000000000,0.0000000000,0.0000000000,126.0000000000,19.0000000000,0.0000000000
1717675330426,6.0000000000,0.0000000000,0.0000000000,124.0000000000,19.0000000000,0.0000000000
1717675330426,6.0000000000,0.0000000000,0.0000000000,124.0000000000,19.0000000000,0.0000000000
1717675330426,6.0000000000,0.0000000000,0.0000000000,123.0000000000,19.0000000000,0.0000000000
1717675330427,6.0000000000,0.0000000000,0.0000000000,121.0000000000,19.0000000000,0.0000000000
1717675330427,6.0000000000,0.0000000000,0.0000000000,121.0000000000,19.0000000000,0.0000000000
1717675330427,6.0000000000,0.0000000000,0.0000000000,120.0000000000,19.0000000000,0.0000000000
1717675330427,6.0000000000,0.0000000000,0.0000000000,120.0000000000,19.0000000000,0.0000000000
1717675330427,6.0000000000,0.0000000000,0.0000000000,120.0000000000,19.0000000000,0.0000000000
1717675330427,7.0000000000,0.0000000000,0.0000000000,119.0000000000,19.0000000000,0.0000000000
1717675330428,7.0000000000,0.0000000000,0.0000000000,118.0000000000,19.0000000000,0.0000000000
1717675330428,7.0000000000,0.0000000000,0.0000000000,118.0000000000,19.0000000000,0.0000000000
1717675330428,7.0000000000,0.0000000000,0.0000000000,117.0000000000,19.0000000000,0.0000000000
1717675330428,7.0000000000,0.0000000000,0.0000000000,116.0000000000,19.0000000000,0.0000000000
1717675330428,7.0000000000,0.0000000000,0.0000000000,115.0000000000,19.0000000000,0.0000000000
1717675330429,7.0000000000,0.0000000000,0.0000000000,115.0000000000,18.0000000000,0.0000000000
1717675330429,7.0000000000,0.0000000000,0.0000000000,115.0000000000,19.0000000000,0.0000000000
1717675330463,7.0000000000,0.0000000000,0.0000000000,114.0000000000,19.0000000000,0.0000000000
1717675330465,7.0000000000,0.0000000000,0.0000000000,113.0000000000,19.0000000000,0.0000000000
1717675330465,7.0000000000,0.0000000000,0.0000000000,113.0000000000,19.0000000000,0.0000000000
1717675330465,7.0000000000,0.0000000000,1.0000000000,112.0000000000,19.0000000000,0.0000000000
1717675330465,7.0000000000,0.0000000000,0.0000000000,112.0000000000,19.0000000000,0.0000000000
1717675330466,6.0000000000,0.0000000000,0.0000000000,111.0000000000,19.0000000000,0.0000000000
1717675330466,7.0000000000,0.0000000000,0.0000000000,111.0000000000,19.0000000000,0.0000000000
1717675330466,7.0000000000,0.0000000000,0.0000000000,111.0000000000,19.0000000000,0.0000000000
1717675330466,7.0000000000,0.0000000000,0.0000000000,110.0000000000,19.0000000000,0.0000000000
1717675330467,7.0000000000,0.0000000000,0.0000000000,109.0000000000,19.0000000000,0.0000000000
1717675330467,7.0000000000,0.0000000000,0.0000000000,109.0000000000,18.0000000000,0.0000000000
1717675330467,7.0000000000,0.0000000000,0.0000000000,108.0000000000,18.0000000000,0.0000000000
1717675330467,7.0000000000,0.0000000000,0.0000000000,108.0000000000,18.0000000000,0.0000000000
1717675330468,7.0000000000,0.0000000000,0.0000000000,108.0000000000,19.0000000000,0.0000000000
1717675330468,7.0000000000,0.0000000000,0.0000000000,107.0000000000,19.0000000000,0.0000000000
1717675330468,7.0000000000,0.0000000000,0.0000000000,106.0000000000,18.0000000000,0.0000000000
1717675330468,7.0000000000,0.0000000000,0.0000000000,105.0000000000,18.0000000000,0.0000000000
1717675330469,7.0000000000,0.0000000000,0.0000000000,105.0000000000,18.0000000000,0.0000000000
1717675330469,7.0000000000,0.0000000000,0.0000000000,105.0000000000,18.0000000000,0.0000000000
1717675330469,6.0000000000,0.0000000000,0.0000000000,104.0000000000,18.0000000000,0.0000000000
1717675330469,7.0000000000,0.0000000000,0.0000000000,103.0000000000,17.0000000000,0.0000000000
1717675330470,7.0000000000,0.0000000000,0.0000000000,103.0000000000,18.0000000000,0.0000000000
1717675330470,7.0000000000,0.0000000000,0.0000000000,103.0000000000,17.0000000000,0.0000000000
1717675330470,7.0000000000,0.0000000000,0.0000000000,103.0000000000,18.0000000000,0.0000000000
1717675330470,7.0000000000,0.0000000000,0.0000000000,102.0000000000,17.0000000000,0.0000000000
1717675330471,7.0000000000,0.0000000000,0.0000000000,102.0000000000,17.0000000000,0.0000000000
1717675330472,7.0000000000,0.0000000000,0.0000000000,101.0000000000,17.0000000000,0.0000000000
1717675330472,7.0000000000,0.0000000000,0.0000000000,100.0000000000,17.0000000000,0.0000000000
1717675330472,6.0000000000,0.0000000000,0.0000000000,100.0000000000,17.0000000000,0.0000000000
1717675330473,7.0000000000,0.0000000000,0.0000000000,99.0000000000,17.0000000000,0.0000000000
1717675330473,7.0000000000,0.0000000000,0.0000000000,99.0000000000,17.0000000000,0.0000000000
1717675330474,7.0000000000,0.0000000000,0.0000000000,99.0000000000,17.0000000000,0.0000000000
1717675330474,6.0000000000,0.0000000000,0.0000000000,99.0000000000,17.0000000000,0.0000000000
1717675330475,6.0000000000,0.0000000000,0.0000000000,97.0000000000,16.0000000000,0.0000000000
1717675330506,7.0000000000,0.0000000000,0.0000000000,98.0000000000,17.0000000000,0.0000000000
1717675330507,6.0000000000,0.0000000000,0.0000000000,97.0000000000,16.0000000000,0.0000000000
1717675330507,6.0000000000,0.0000000000,0.0000000000,96.0000000000,17.0000000000,0.0000000000
1717675330508,7.0000000000,0.0000000000,0.0000000000,96.0000000000,16.0000000000,0.0000000000
1717675330508,6.0000000000,0.0000000000,0.0000000000,96.0000000000,17.0000000000,0.0000000000
1717675330508,6.0000000000,0.0000000000,0.0000000000,96.0000000000,17.0000000000,0.0000000000
1717675330508,6.0000000000,0.0000000000,0.0000000000,95.0000000000,16.0000000000,0.0000000000
1717675330509,6.0000000000,0.0000000000,0.0000000000,95.0000000000,17.0000000000,0.0000000000
1717675330509,6.0000000000,0.0000000000,0.0000000000,94.0000000000,16.0000000000,0.0000000000
1717675330509,6.0000000000,0.0000000000,0.0000000000,94.0000000000,15.0000000000,0.0000000000
1717675330509,6.0000000000,0.0000000000,0.0000000000,94.0000000000,16.0000000000,0.0000000000
1717675330510,6.0000000000,0.0000000000,0.0000000000,93.0000000000,15.0000000000,0.0000000000
1717675330510,6.0000000000,0.0000000000,1.0000000000,93.0000000000,16.0000000000,0.0000000000
1717675330510,6.0000000000,0.0000000000,0.0000000000,92.0000000000,15.0000000000,0.0000000000
1717675330510,6.0000000000,0.0000000000,0.0000000000,92.0000000000,15.0000000000,0.0000000000
1717675330511,6.0000000000,0.0000000000,0.0000000000,92.0000000000,15.0000000000,0.0000000000
1717675330511,5.0000000000,0.0000000000,0.0000000000,92.0000000000,16.0000000000,0.0000000000
1717675330511,6.0000000000,0.0000000000,0.0000000000,91.0000000000,16.0000000000,0.0000000000
1717675330511,6.0000000000,0.0000000000,0.0000000000,90.0000000000,15.0000000000,0.0000000000
1717675330512,6.0000000000,0.0000000000,0.0000000000,90.0000000000,15.0000000000,0.0000000000
1717675330513,6.0000000000,0.0000000000,0.0000000000,90.0000000000,15.0000000000,0.0000000000
1717675330513,7.0000000000,0.0000000000,0.0000000000,98.0000000000,15.0000000000,0.0000000000
1717675330514,6.0000000000,0.0000000000,0.0000000000,97.0000000000,15.0000000000,0.0000000000
1717675330514,6.0000000000,0.0000000000,0.0000000000,97.0000000000,15.0000000000,0.0000000000
1717675330514,6.0000000000,0.0000000000,0.0000000000,96.0000000000,17.0000000000,0.0000000000
1717675330514,6.0000000000,0.0000000000,0.0000000000,96.0000000000,16.0000000000,0.0000000000
1717675330515,6.0000000000,0.0000000000,0.0000000000,96.0000000000,16.0000000000,0.0000000000
1717675330515,6.0000000000,0.0000000000,0.0000000000,96.0000000000,16.0000000000,0.0000000000
1717675330515,6.0000000000,0.0000000000,3.0000000000,95.0000000000,16.0000000000,0.0000000000
1717675330516,6.0000000000,0.0000000000,3.0000000000,94.0000000000,15.0000000000,0.0000000000
1717675330516,6.0000000000,0.0000000000,3.0000000000,96.0000000000,16.0000000000,0.0000000000
1717675330516,6.0000000000,0.0000000000,3.0000000000,129.0000000000,16.0000000000,0.0000000000
1717675330540,6.0000000000,0.0000000000,3.0000000000,128.0000000000,16.0000000000,0.0000000000
1717675330540,6.0000000000,0.0000000000,3.0000000000,127.0000000000,15.0000000000,0.0000000000
1717675330540,6.0000000000,0.0000000000,3.0000000000,127.0000000000,15.0000000000,0.0000000000
1717675330541,6.0000000000,0.0000000000,3.0000000000,126.0000000000,15.0000000000,0.0000000000
1717675330541,6.0000000000,0.0000000000,3.0000000000,126.0000000000,15.0000000000,0.0000000000
1717675330541,6.0000000000,0.0000000000,3.0000000000,125.0000000000,15.0000000000,0.0000000000
1717675330541,6.0000000000,0.0000000000,3.0000000000,124.0000000000,15.0000000000,0.0000000000
1717675330541,6.0000000000,0.0000000000,3.0000000000,124.0000000000,26.0000000000,0.0000000000
1717675330541,6.0000000000,0.0000000000,3.0000000000,124.0000000000,38.0000000000,0.0000000000
1717675330541,5.0000000000,0.0000000000,3.0000000000,123.0000000000,40.0000000000,0.0000000000
1717675330541,5.0000000000,0.0000000000,3.0000000000,122.0000000000,39.0000000000,0.0000000000
1717675330541,6.0000000000,0.0000000000,3.0000000000,121.0000000000,39.0000000000,0.0000000000
1717675330541,6.0000000000,0.0000000000,3.0000000000,120.0000000000,39.0000000000,0.0000000000
1717675330542,6.0000000000,0.0000000000,3.0000000000,120.0000000000,39.0000000000,0.0000000000
1717675330542,5.0000000000,0.0000000000,3.0000000000,120.0000000000,39.0000000000,0.0000000000
1717675330542,5.0000000000,0.0000000000,3.0000000000,167.0000000000,39.0000000000,0.0000000000
1717675330542,6.0000000000,0.0000000000,3.0000000000,233.0000000000,39.0000000000,0.0000000000
1717675330542,7.0000000000,0.0000000000,3.0000000000,231.0000000000,38.0000000000,0.0000000000
1717675330558,7.0000000000,0.0000000000,3.0000000000,230.0000000000,38.0000000000,0.0000000000
1717675330559,7.0000000000,0.0000000000,3.0000000000,228.0000000000,38.0000000000,0.0000000000
1717675330559,7.0000000000,0.0000000000,3.0000000000,227.0000000000,38.0000000000,0.0000000000
1717675330559,7.0000000000,0.0000000000,3.0000000000,225.0000000000,38.0000000000,0.0000000000
1717675330559,7.0000000000,0.0000000000,3.0000000000,224.0000000000,44.0000000000,0.0000000000
1717675330559,7.0000000000,0.0000000000,3.0000000000,223.0000000000,60.0000000000,0.0000000000
1717675330559,7.0000000000,0.0000000000,3.0000000000,222.0000000000,60.0000000000,0.0000000000
1717675330560,7.0000000000,0.0000000000,4.0000000000,220.0000000000,59.0000000000,0.0000000000
1717675330560,7.0000000000,0.0000000000,4.0000000000,220.0000000000,59.0000000000,0.0000000000
1717675330560,7.0000000000,0.0000000000,4.0000000000,219.0000000000,59.0000000000,0.0000000000
1717675330560,7.0000000000,0.0000000000,5.0000000000,217.0000000000,59.0000000000,0.0000000000
1717675330560,6.0000000000,0.0000000000,5.0000000000,216.0000000000,57.0000000000,0.0000000000
1717675330560,6.0000000000,0.0000000000,4.0000000000,216.0000000000,58.0000000000,0.0000000000
1717675330560,7.0000000000,0.0000000000,5.0000000000,214.0000000000,57.0000000000,0.0000000000
1717675330561,7.0000000000,0.0000000000,5.0000000000,213.0000000000,57.0000000000,0.0000000000
1717675330578,7.0000000000,0.0000000000,4.0000000000,211.0000000000,57.0000000000,0.0000000000
1717675330581,7.0000000000,0.0000000000,4.0000000000,211.0000000000,56.0000000000,0.0000000000
1717675330582,7.0000000000,0.0000000000,4.0000000000,210.0000000000,56.0000000000,0.0000000000
1717675330582,7.0000000000,0.0000000000,4.0000000000,208.0000000000,56.0000000000,0.0000000000
1717675330582,7.0000000000,0.0000000000,4.0000000000,207.0000000000,56.0000000000,0.0000000000
1717675330582,7.0000000000,0.0000000000,4.0000000000,207.0000000000,56.0000000000,0.0000000000
1717675330583,6.0000000000,0.0000000000,4.0000000000,206.0000000000,56.0000000000,0.0000000000
1717675330583,7.0000000000,0.0000000000,4.0000000000,204.0000000000,55.0000000000,0.0000000000
1717675330583,7.0000000000,0.0000000000,4.0000000000,204.0000000000,55.0000000000,0.0000000000
1717675330583,7.0000000000,0.0000000000,9.0000000000,204.0000000000,54.0000000000,0.0000000000
1717675330584,7.0000000000,0.0000000000,17.0000000000,205.0000000000,54.0000000000,0.0000000000
1717675330584,6.0000000000,0.0000000000,16.0000000000,230.0000000000,54.0000000000,0.0000000000
1717675330584,6.0000000000,0.0000000000,17.0000000000,228.0000000000,54.0000000000,0.0000000000
1717675330584,7.0000000000,0.0000000000,16.0000000000,227.0000000000,53.0000000000,0.0000000000
1717675330585,6.0000000000,0.0000000000,17.0000000000,225.0000000000,53.0000000000,0.0000000000
1717675330585,6.0000000000,0.0000000000,17.0000000000,224.0000000000,52.0000000000,0.0000000000
1717675330585,7.0000000000,0.0000000000,15.0000000000,224.0000000000,52.0000000000,0.0000000000
1717675330614,6.0000000000,0.0000000000,19.0000000000,222.0000000000,51.0000000000,0.0000000000
1717675330615,6.0000000000,0.0000000000,19.0000000000,221.0000000000,51.0000000000,0.0000000000
1717675330615,6.0000000000,0.0000000000,19.0000000000,220.0000000000,51.0000000000,0.0000000000
1717675330615,6.0000000000,0.0000000000,19.0000000000,219.0000000000,51.0000000000,0.0000000000
1717675330615,6.0000000000,0.0000000000,19.0000000000,217.0000000000,51.0000000000,0.0000000000
1717675330616,6.0000000000,0.0000000000,19.0000000000,216.0000000000,51.0000000000,0.0000000000
1717675330616,6.0000000000,0.0000000000,18.0000000000,215.0000000000,51.0000000000,0.0000000000
1717675330616,6.0000000000,0.0000000000,18.0000000000,214.0000000000,50.0000000000,0.0000000000
1717675330616,6.0000000000,0.0000000000,76.0000000000,212.0000000000,50.0000000000,0.0000000000
1717675330616,6.0000000000,0.0000000000,95.0000000000,211.0000000000,50.0000000000,0.0000000000
1717675330616,7.0000000000,0.0000000000,93.0000000000,211.0000000000,50.0000000000,0.0000000000
1717675330616,7.0000000000,0.0000000000,93.0000000000,297.0000000000,49.0000000000,0.0000000000
1717675330616,7.0000000000,0.0000000000,92.0000000000,318.0000000000,49.0000000000,0.0000000000
1717675330617,7.0000000000,0.0000000000,91.0000000000,315.0000000000,49.0000000000,0.0000000000
1717675330617,7.0000000000,0.0000000000,91.0000000000,312.0000000000,48.0000000000,0.0000000000
1717675330617,7.0000000000,0.0000000000,91.0000000000,311.0000000000,48.0000000000,0.0000000000
1717675330617,7.0000000000,0.0000000000,90.0000000000,309.0000000000,48.0000000000,0.0000000000
1717675330617,7.0000000000,4.0000000000,89.0000000000,306.0000000000,48.0000000000,0.0000000000
1717675330617,7.0000000000,3.0000000000,88.0000000000,305.0000000000,48.0000000000,0.0000000000
1717675330617,7.0000000000,3.0000000000,88.0000000000,303.0000000000,48.0000000000,0.0000000000
1717675330618,6.0000000000,3.0000000000,88.0000000000,302.0000000000,47.0000000000,0.0000000000
1717675330618,6.0000000000,4.0000000000,88.0000000000,300.0000000000,48.0000000000,0.0000000000
1717675330618,7.0000000000,4.0000000000,87.0000000000,297.0000000000,47.0000000000,0.0000000000
1717675330635,7.0000000000,4.0000000000,87.0000000000,295.0000000000,47.0000000000,0.0000000000
1717675330637,7.0000000000,4.0000000000,86.0000000000,295.0000000000,47.0000000000,0.0000000000
1717675330638,7.0000000000,3.0000000000,86.0000000000,292.0000000000,46.0000000000,0.0000000000
1717675330638,7.0000000000,4.0000000000,86.0000000000,393.0000000000,46.0000000000,0.0000000000
1717675330638,7.0000000000,3.0000000000,85.0000000000,388.0000000000,46.0000000000,0.0000000000
1717675330638,7.0000000000,3.0000000000,84.0000000000,385.0000000000,46.0000000000,0.0000000000
1717675330639,6.0000000000,3.0000000000,83.0000000000,384.0000000000,46.0000000000,0.0000000000
1717675330639,7.0000000000,3.0000000000,83.0000000000,380.0000000000,45.0000000000,0.0000000000
1717675330639,6.0000000000,3.0000000000,83.0000000000,378.0000000000,45.0000000000,0.0000000000
1717675330639,6.0000000000,3.0000000000,83.0000000000,376.0000000000,44.0000000000,0.0000000000
1717675330639,7.0000000000,3.0000000000,82.0000000000,374.0000000000,44.0000000000,0.0000000000
1717675330640,6.0000000000,3.0000000000,82.0000000000,371.0000000000,44.0000000000,0.0000000000
1717675330640,7.0000000000,3.0000000000,81.0000000000,368.0000000000,44.0000000000,0.0000000000
1717675330640,6.0000000000,3.0000000000,81.0000000000,366.0000000000,44.0000000000,0.0000000000
1717675330656,7.0000000000,3.0000000000,81.0000000000,364.0000000000,44.0000000000,0.0000000000
1717675330657,7.0000000000,3.0000000000,80.0000000000,361.0000000000,44.0000000000,0.0000000000
1717675330657,7.0000000000,3.0000000000,79.0000000000,359.0000000000,43.0000000000,0.0000000000
1717675330657,7.0000000000,3.0000000000,79.0000000000,358.0000000000,43.0000000000,0.0000000000
1717675330657,7.0000000000,3.0000000000,79.0000000000,355.0000000000,43.0000000000,0.0000000000
1717675330657,7.0000000000,3.0000000000,79.0000000000,354.0000000000,43.0000000000,0.0000000000
1717675330657,7.0000000000,3.0000000000,78.0000000000,352.0000000000,45.0000000000,0.0000000000
1717675330657,7.0000000000,3.0000000000,78.0000000000,448.0000000000,47.0000000000,0.0000000000
1717675330657,7.0000000000,3.0000000000,78.0000000000,449.0000000000,48.0000000000,0.0000000000
1717675330657,7.0000000000,3.0000000000,77.0000000000,445.0000000000,48.0000000000,0.0000000000
1717675330657,7.0000000000,3.0000000000,84.0000000000,441.0000000000,48.0000000000,0.0000000000
1717675330670,6.0000000000,3.0000000000,83.0000000000,438.0000000000,47.0000000000,0.0000000000
1717675330671,6.0000000000,3.0000000000,83.0000000000,435.0000000000,47.0000000000,0.0000000000
1717675330672,7.0000000000,3.0000000000,83.0000000000,432.0000000000,46.0000000000,0.0000000000
1717675330672,7.0000000000,3.0000000000,83.0000000000,428.0000000000,46.0000000000,0.0000000000
1717675330672,6.0000000000,3.0000000000,82.0000000000,427.0000000000,46.0000000000,0.0000000000
1717675330672,6.0000000000,3.0000000000,81.0000000000,423.0000000000,46.0000000000,0.0000000000
1717675330672,7.0000000000,3.0000000000,81.0000000000,421.0000000000,46.0000000000,0.0000000000
1717675330673,6.0000000000,3.0000000000,81.0000000000,419.0000000000,46.0000000000,0.0000000000
1717675330673,6.0000000000,3.0000000000,79.0000000000,415.0000000000,45.0000000000,0.0000000000
1717675330673,6.0000000000,3.0000000000,79.0000000000,413.0000000000,45.0000000000,0.0000000000
1717675330673,6.0000000000,3.0000000000,79.0000000000,411.0000000000,45.0000000000,0.0000000000
1717675330673,6.0000000000,3.0000000000,79.0000000000,408.0000000000,84.0000000000,0.0000000000
1717675330690,6.0000000000,3.0000000000,80.0000000000,405.0000000000,113.0000000000,0.0000000000
1717675330691,6.0000000000,3.0000000000,79.0000000000,403.0000000000,112.0000000000,0.0000000000
1717675330691,6.0000000000,3.0000000000,79.0000000000,399.0000000000,111.0000000000,0.0000000000
1717675330692,6.0000000000,3.0000000000,79.0000000000,398.0000000000,110.0000000000,0.0000000000
1717675330692,6.0000000000,3.0000000000,79.0000000000,396.0000000000,109.0000000000,0.0000000000
1717675330692,20.0000000000,3.0000000000,87.0000000000,391.0000000000,108.0000000000,0.0000000000
1717675330692,19.0000000000,3.0000000000,86.0000000000,391.0000000000,108.0000000000,0.0000000000
1717675330693,19.0000000000,3.0000000000,85.0000000000,387.0000000000,108.0000000000,0.0000000000
1717675330693,19.0000000000,3.0000000000,84.0000000000,385.0000000000,107.0000000000,0.0000000000
1717675330693,19.0000000000,6.0000000000,84.0000000000,383.0000000000,106.0000000000,0.0000000000
1717675330693,19.0000000000,6.0000000000,84.0000000000,380.0000000000,105.0000000000,0.0000000000
1717675330694,19.0000000000,6.0000000000,83.0000000000,377.0000000000,121.0000000000,0.0000000000
1717675330694,19.0000000000,5.0000000000,83.0000000000,375.0000000000,120.0000000000,0.0000000000
1717675330727,18.0000000000,6.0000000000,83.0000000000,373.0000000000,119.0000000000,0.0000000000
1717675330728,19.0000000000,6.0000000000,83.0000000000,371.0000000000,118.0000000000,0.0000000000
1717675330728,19.0000000000,6.0000000000,81.0000000000,368.0000000000,118.0000000000,1.0000000000
1717675330728,23.0000000000,6.0000000000,81.0000000000,366.0000000000,116.0000000000,4.0000000000
1717675330728,30.0000000000,6.0000000000,81.0000000000,472.0000000000,116.0000000000,4.0000000000
1717675330728,29.0000000000,5.0000000000,80.0000000000,492.0000000000,115.0000000000,4.0000000000
1717675330728,29.0000000000,5.0000000000,79.0000000000,508.0000000000,115.0000000000,4.0000000000
1717675330728,28.0000000000,6.0000000000,174.0000000000,515.0000000000,114.0000000000,3.0000000000
1717675330729,28.0000000000,5.0000000000,212.0000000000,511.0000000000,113.0000000000,3.0000000000
1717675330729,28.0000000000,105.0000000000,210.0000000000,505.0000000000,112.0000000000,4.0000000000
1717675330729,28.0000000000,121.0000000000,224.0000000000,500.0000000000,113.0000000000,3.0000000000
1717675330729,28.0000000000,120.0000000000,221.0000000000,496.0000000000,112.0000000000,4.0000000000
1717675330729,28.0000000000,118.0000000000,219.0000000000,491.0000000000,111.0000000000,3.0000000000
1717675330729,27.0000000000,118.0000000000,217.0000000000,518.0000000000,110.0000000000,3.0000000000
1717675330729,27.0000000000,116.0000000000,216.0000000000,511.0000000000,110.0000000000,3.0000000000
1717675330729,27.0000000000,115.0000000000,214.0000000000,505.0000000000,109.0000000000,3.0000000000
1717675330729,27.0000000000,115.0000000000,212.0000000000,502.0000000000,144.0000000000,3.0000000000
1717675330729,27.0000000000,114.0000000000,253.0000000000,497.0000000000,143.0000000000,4.0000000000
1717675330730,26.0000000000,137.0000000000,251.0000000000,492.0000000000,141.0000000000,3.0000000000
1717675330730,25.0000000000,143.0000000000,249.0000000000,487.0000000000,140.0000000000,3.0000000000
1717675330783,26.0000000000,143.0000000000,247.0000000000,483.0000000000,139.0000000000,3.0000000000
1717675330784,26.0000000000,142.0000000000,245.0000000000,480.0000000000,138.0000000000,3.0000000000
1717675330784,25.0000000000,140.0000000000,243.0000000000,476.0000000000,137.0000000000,4.0000000000
1717675330785,25.0000000000,140.0000000000,310.0000000000,472.0000000000,135.0000000000,4.0000000000
1717675330785,25.0000000000,137.0000000000,305.0000000000,467.0000000000,135.0000000000,3.0000000000
1717675330785,25.0000000000,137.0000000000,302.0000000000,464.0000000000,135.0000000000,3.0000000000
1717675330785,30.0000000000,135.0000000000,300.0000000000,460.0000000000,134.0000000000,4.0000000000
1717675330786,31.0000000000,135.0000000000,298.0000000000,455.0000000000,133.0000000000,3.0000000000
1717675330786,31.0000000000,135.0000000000,295.0000000000,452.0000000000,132.0000000000,3.0000000000
1717675330786,31.0000000000,134.0000000000,294.0000000000,504.0000000000,143.0000000000,3.0000000000
1717675330787,31.0000000000,132.0000000000,291.0000000000,512.0000000000,142.0000000000,3.0000000000
1717675330787,31.0000000000,131.0000000000,289.0000000000,507.0000000000,142.0000000000,3.0000000000
1717675330787,30.0000000000,131.0000000000,287.0000000000,502.0000000000,140.0000000000,3.0000000000
1717675330788,30.0000000000,130.0000000000,285.0000000000,532.0000000000,139.0000000000,3.0000000000
1717675330788,30.0000000000,129.0000000000,284.0000000000,527.0000000000,137.0000000000,3.0000000000
1717675330789,34.0000000000,129.0000000000,282.0000000000,520.0000000000,137.0000000000,4.0000000000
1717675330789,51.0000000000,127.0000000000,280.0000000000,515.0000000000,135.0000000000,3.0000000000
1717675330789,56.0000000000,127.0000000000,278.0000000000,526.0000000000,135.0000000000,4.0000000000
1717675330789,76.0000000000,126.0000000000,275.0000000000,619.0000000000,135.0000000000,4.0000000000
1717675330790,74.0000000000,125.0000000000,274.0000000000,611.0000000000,171.0000000000,4.0000000000
1717675330790,73.0000000000,124.0000000000,272.0000000000,604.0000000000,194.0000000000,3.0000000000
1717675330790,73.0000000000,124.0000000000,271.0000000000,599.0000000000,193.0000000000,3.0000000000
1717675330790,71.0000000000,123.0000000000,269.0000000000,593.0000000000,192.0000000000,3.0000000000
1717675330791,71.0000000000,121.0000000000,267.0000000000,594.0000000000,190.0000000000,4.0000000000
1717675330791,71.0000000000,121.0000000000,265.0000000000,587.0000000000,189.0000000000,3.0000000000
1717675330791,71.0000000000,120.0000000000,263.0000000000,581.0000000000,188.0000000000,3.0000000000
1717675330791,70.0000000000,120.0000000000,262.0000000000,575.0000000000,187.0000000000,3.0000000000
1717675330792,77.0000000000,119.0000000000,260.0000000000,571.0000000000,185.0000000000,3.0000000000
1717675330792,87.0000000000,118.0000000000,259.0000000000,564.0000000000,184.0000000000,3.0000000000
1717675330792,86.0000000000,118.0000000000,257.0000000000,559.0000000000,183.0000000000,3.0000000000
1717675330792,86.0000000000,116.0000000000,255.0000000000,555.0000000000,182.0000000000,3.0000000000
1717675330793,85.0000000000,116.0000000000,254.0000000000,550.0000000000,180.0000000000,3.0000000000
1717675330793,84.0000000000,115.0000000000,348.0000000000,543.0000000000,179.0000000000,3.0000000000
1717675330793,83.0000000000,115.0000000000,344.0000000000,539.0000000000,177.0000000000,3.0000000000
1717675330794,83.0000000000,114.0000000000,340.0000000000,535.0000000000,176.0000000000,3.0000000000
1717675330810,83.0000000000,113.0000000000,337.0000000000,529.0000000000,176.0000000000,3.0000000000
1717675330811,81.0000000000,112.0000000000,335.0000000000,525.0000000000,175.0000000000,3.0000000000
1717675330811,86.0000000000,179.0000000000,332.0000000000,519.0000000000,174.0000000000,3.0000000000
1717675330811,86.0000000000,178.0000000000,329.0000000000,516.0000000000,172.0000000000,3.0000000000
1717675330811,84.0000000000,176.0000000000,327.0000000000,512.0000000000,171.0000000000,4.0000000000
1717675330811,84.0000000000,175.0000000000,326.0000000000,507.0000000000,171.0000000000,3.0000000000
1717675330812,84.0000000000,174.0000000000,323.0000000000,589.0000000000,169.0000000000,3.0000000000
1717675330812,83.0000000000,172.0000000000,321.0000000000,611.0000000000,167.0000000000,3.0000000000
1717675330812,83.0000000000,171.0000000000,319.0000000000,604.0000000000,167.0000000000,3.0000000000
1717675330826,82.0000000000,169.0000000000,316.0000000000,596.0000000000,166.0000000000,3.0000000000
1717675330826,82.0000000000,168.0000000000,315.0000000000,591.0000000000,165.0000000000,3.0000000000
1717675330826,81.0000000000,167.0000000000,312.0000000000,585.0000000000,163.0000000000,3.0000000000
1717675330826,80.0000000000,167.0000000000,310.0000000000,579.0000000000,163.0000000000,3.0000000000
1717675330826,79.0000000000,166.0000000000,307.0000000000,573.0000000000,161.0000000000,3.0000000000
1717675330827,79.0000000000,164.0000000000,307.0000000000,568.0000000000,161.0000000000,3.0000000000
1717675330827,79.0000000000,163.0000000000,304.0000000000,561.0000000000,159.0000000000,3.0000000000
1717675330827,79.0000000000,161.0000000000,302.0000000000,558.0000000000,159.0000000000,3.0000000000
1717675330827,78.0000000000,161.0000000000,300.0000000000,551.0000000000,158.0000000000,4.0000000000
1717675330845,77.0000000000,159.0000000000,297.0000000000,546.0000000000,158.0000000000,3.0000000000
1717675330846,77.0000000000,159.0000000000,295.0000000000,587.0000000000,156.0000000000,3.0000000000
1717675330846,76.0000000000,158.0000000000,294.0000000000,694.0000000000,155.0000000000,3.0000000000
1717675330846,76.0000000000,158.0000000000,292.0000000000,684.0000000000,154.0000000000,3.0000000000
1717675330846,75.0000000000,156.0000000000,291.0000000000,675.0000000000,153.0000000000,4.0000000000
1717675330846,75.0000000000,155.0000000000,288.0000000000,667.0000000000,152.0000000000,3.0000000000
1717675330846,75.0000000000,154.0000000000,287.0000000000,661.0000000000,152.0000000000,4.0000000000
1717675330846,75.0000000000,153.0000000000,284.0000000000,653.0000000000,151.0000000000,3.0000000000
1717675330847,74.0000000000,152.0000000000,284.0000000000,646.0000000000,150.0000000000,4.0000000000
1717675330847,73.0000000000,152.0000000000,281.0000000000,639.0000000000,149.0000000000,3.0000000000
1717675330847,73.0000000000,151.0000000000,280.0000000000,633.0000000000,184.0000000000,3.0000000000
1717675330862,71.0000000000,150.0000000000,278.0000000000,627.0000000000,182.0000000000,3.0000000000
1717675330864,71.0000000000,148.0000000000,276.0000000000,620.0000000000,182.0000000000,4.0000000000
1717675330864,71.0000000000,147.0000000000,275.0000000000,695.0000000000,180.0000000000,3.0000000000
1717675330864,71.0000000000,147.0000000000,273.0000000000,687.0000000000,178.0000000000,3.0000000000
1717675330864,71.0000000000,145.0000000000,271.0000000000,679.0000000000,177.0000000000,4.0000000000
1717675330864,70.0000000000,145.0000000000,270.0000000000,670.0000000000,176.0000000000,3.0000000000
1717675330864,70.0000000000,143.0000000000,268.0000000000,663.0000000000,175.0000000000,3.0000000000
1717675330864,70.0000000000,143.0000000000,266.0000000000,655.0000000000,174.0000000000,4.0000000000
1717675330864,69.0000000000,142.0000000000,264.0000000000,649.0000000000,172.0000000000,4.0000000000
1717675330878,68.0000000000,141.0000000000,263.0000000000,641.0000000000,172.0000000000,4.0000000000
1717675330879,68.0000000000,140.0000000000,262.0000000000,635.0000000000,170.0000000000,4.0000000000
1717675330880,68.0000000000,140.0000000000,259.0000000000,630.0000000000,169.0000000000,4.0000000000
1717675330881,67.0000000000,139.0000000000,299.0000000000,624.0000000000,167.0000000000,4.0000000000
1717675330881,67.0000000000,138.0000000000,327.0000000000,615.0000000000,167.0000000000,4.0000000000
1717675330881,66.0000000000,137.0000000000,327.0000000000,609.0000000000,166.0000000000,4.0000000000
1717675330882,66.0000000000,135.0000000000,323.0000000000,604.0000000000,165.0000000000,4.0000000000
1717675330882,66.0000000000,135.0000000000,321.0000000000,599.0000000000,163.0000000000,5.0000000000
1717675330914,65.0000000000,135.0000000000,319.0000000000,591.0000000000,163.0000000000,4.0000000000
1717675330914,65.0000000000,134.0000000000,317.0000000000,587.0000000000,162.0000000000,4.0000000000
1717675330914,64.0000000000,134.0000000000,315.0000000000,580.0000000000,161.0000000000,4.0000000000
1717675330915,63.0000000000,132.0000000000,312.0000000000,575.0000000000,159.0000000000,4.0000000000
1717675330915,63.0000000000,131.0000000000,364.0000000000,571.0000000000,163.0000000000,4.0000000000
1717675330915,63.0000000000,131.0000000000,359.0000000000,564.0000000000,163.0000000000,4.0000000000
1717675330915,63.0000000000,129.0000000000,357.0000000000,560.0000000000,161.0000000000,4.0000000000
1717675330915,62.0000000000,129.0000000000,353.0000000000,556.0000000000,160.0000000000,4.0000000000
1717675330915,62.0000000000,129.0000000000,352.0000000000,550.0000000000,159.0000000000,4.0000000000
1717675330915,61.0000000000,127.0000000000,349.0000000000,544.0000000000,159.0000000000,4.0000000000
1717675330916,61.0000000000,127.0000000000,346.0000000000,540.0000000000,158.0000000000,4.0000000000
1717675330916,61.0000000000,126.0000000000,344.0000000000,536.0000000000,156.0000000000,4.0000000000
1717675330916,60.0000000000,126.0000000000,341.0000000000,531.0000000000,156.0000000000,4.0000000000
1717675330916,60.0000000000,125.0000000000,339.0000000000,537.0000000000,155.0000000000,4.0000000000
1717675330916,60.0000000000,124.0000000000,336.0000000000,531.0000000000,153.0000000000,4.0000000000
1717675330916,60.0000000000,124.0000000000,334.0000000000,527.0000000000,152.0000000000,4.0000000000
1717675330916,59.0000000000,123.0000000000,332.0000000000,523.0000000000,152.0000000000,4.0000000000
1717675330916,59.0000000000,121.0000000000,329.0000000000,518.0000000000,152.0000000000,3.0000000000
1717675330917,58.0000000000,121.0000000000,327.0000000000,513.0000000000,150.0000000000,4.0000000000
1717675330917,58.0000000000,120.0000000000,411.0000000000,509.0000000000,150.0000000000,4.0000000000
1717675330934,57.0000000000,120.0000000000,407.0000000000,505.0000000000,148.0000000000,4.0000000000
1717675330934,57.0000000000,119.0000000000,403.0000000000,500.0000000000,147.0000000000,4.0000000000
1717675330935,57.0000000000,118.0000000000,399.0000000000,496.0000000000,147.0000000000,4.0000000000
1717675330935,56.0000000000,118.0000000000,397.0000000000,494.0000000000,145.0000000000,4.0000000000
1717675330935,56.0000000000,116.0000000000,393.0000000000,488.0000000000,145.0000000000,4.0000000000
1717675330935,56.0000000000,116.0000000000,390.0000000000,484.0000000000,143.0000000000,4.0000000000
1717675330935,56.0000000000,115.0000000000,388.0000000000,480.0000000000,143.0000000000,4.0000000000
1717675330935,55.0000000000,115.0000000000,385.0000000000,476.0000000000,143.0000000000,4.0000000000
1717675330935,55.0000000000,114.0000000000,382.0000000000,474.0000000000,153.0000000000,4.0000000000
1717675330952,54.0000000000,113.0000000000,379.0000000000,470.0000000000,152.0000000000,4.0000000000
1717675330953,54.0000000000,113.0000000000,376.0000000000,465.0000000000,151.0000000000,3.0000000000
1717675330953,54.0000000000,112.0000000000,374.0000000000,463.0000000000,150.0000000000,10.0000000000
1717675330953,54.0000000000,112.0000000000,371.0000000000,460.0000000000,148.0000000000,12.0000000000
1717675330953,53.0000000000,111.0000000000,368.0000000000,456.0000000000,147.0000000000,12.0000000000
1717675330954,53.0000000000,110.0000000000,365.0000000000,504.0000000000,147.0000000000,11.0000000000
1717675330954,52.0000000000,110.0000000000,363.0000000000,499.0000000000,145.0000000000,12.0000000000
1717675330954,51.0000000000,109.0000000000,359.0000000000,493.0000000000,145.0000000000,12.0000000000
1717675330954,51.0000000000,108.0000000000,358.0000000000,487.0000000000,143.0000000000,12.0000000000
1717675330955,51.0000000000,108.0000000000,355.0000000000,483.0000000000,143.0000000000,11.0000000000
1717675330971,51.0000000000,108.0000000000,352.0000000000,479.0000000000,142.0000000000,12.0000000000
1717675330972,51.0000000000,107.0000000000,351.0000000000,475.0000000000,140.0000000000,11.0000000000
1717675330972,50.0000000000,106.0000000000,348.0000000000,470.0000000000,140.0000000000,12.0000000000
1717675330972,50.0000000000,105.0000000000,345.0000000000,465.0000000000,140.0000000000,11.0000000000
1717675330972,49.0000000000,103.0000000000,344.0000000000,524.0000000000,138.0000000000,11.0000000000
1717675330972,49.0000000000,103.0000000000,340.0000000000,539.0000000000,137.0000000000,11.0000000000
1717675330972,49.0000000000,103.0000000000,339.0000000000,533.0000000000,136.0000000000,11.0000000000
1717675330972,49.0000000000,103.0000000000,335.0000000000,527.0000000000,135.0000000000,10.0000000000
1717675330972,49.0000000000,103.0000000000,381.0000000000,524.0000000000,176.0000000000,11.0000000000
1717675330989,48.0000000000,102.0000000000,460.0000000000,518.0000000000,175.0000000000,10.0000000000
1717675330990,48.0000000000,100.0000000000,455.0000000000,513.0000000000,173.0000000000,10.0000000000
1717675330990,47.0000000000,100.0000000000,451.0000000000,508.0000000000,172.0000000000,10.0000000000
1717675330990,47.0000000000,99.0000000000,448.0000000000,503.0000000000,171.0000000000,10.0000000000
1717675330990,47.0000000000,99.0000000000,444.0000000000,497.0000000000,169.0000000000,10.0000000000
1717675330990,47.0000000000,99.0000000000,440.0000000000,494.0000000000,168.0000000000,9.0000000000
1717675330990,47.0000000000,113.0000000000,437.0000000000,490.0000000000,167.0000000000,9.0000000000
1717675330990,46.0000000000,242.0000000000,433.0000000000,485.0000000000,166.0000000000,9.0000000000
1717675330991,46.0000000000,239.0000000000,430.0000000000,481.0000000000,165.0000000000,9.0000000000
1717675330991,46.0000000000,236.0000000000,427.0000000000,476.0000000000,163.0000000000,9.0000000000
1717675330992,45.0000000000,235.0000000000,467.0000000000,473.0000000000,163.0000000000,9.0000000000
1717675331005,45.0000000000,233.0000000000,486.0000000000,469.0000000000,161.0000000000,9.0000000000
1717675331006,44.0000000000,231.0000000000,483.0000000000,464.0000000000,161.0000000000,9.0000000000
1717675331006,44.0000000000,230.0000000000,478.0000000000,460.0000000000,159.0000000000,10.0000000000
1717675331006,44.0000000000,227.0000000000,473.0000000000,457.0000000000,159.0000000000,9.0000000000
1717675331006,44.0000000000,227.0000000000,469.0000000000,454.0000000000,158.0000000000,10.0000000000
1717675331006,44.0000000000,224.0000000000,465.0000000000,449.0000000000,157.0000000000,9.0000000000
1717675331006,43.0000000000,223.0000000000,462.0000000000,447.0000000000,156.0000000000,9.0000000000
1717675331007,43.0000000000,222.0000000000,459.0000000000,443.0000000000,155.0000000000,9.0000000000
1717675331021,43.0000000000,220.0000000000,455.0000000000,440.0000000000,154.0000000000,9.0000000000
1717675331022,43.0000000000,219.0000000000,451.0000000000,436.0000000000,152.0000000000,9.0000000000
1717675331022,42.0000000000,217.0000000000,448.0000000000,432.0000000000,152.0000000000,9.0000000000
1717675331022,42.0000000000,216.0000000000,444.0000000000,430.0000000000,151.0000000000,9.0000000000
1717675331022,43.0000000000,214.0000000000,440.0000000000,427.0000000000,151.0000000000,9.0000000000
1717675331022,41.0000000000,214.0000000000,436.0000000000,423.0000000000,150.0000000000,9.0000000000
1717675331023,41.0000000000,211.0000000000,433.0000000000,420.0000000000,148.0000000000,9.0000000000
1717675331023,41.0000000000,210.0000000000,430.0000000000,527.0000000000,147.0000000000,9.0000000000
1717675331023,40.0000000000,208.0000000000,427.0000000000,521.0000000000,147.0000000000,9.0000000000
1717675331037,41.0000000000,207.0000000000,423.0000000000,518.0000000000,146.0000000000,8.0000000000
1717675331037,39.0000000000,206.0000000000,420.0000000000,512.0000000000,144.0000000000,7.0000000000
1717675331038,39.0000000000,205.0000000000,417.0000000000,508.0000000000,144.0000000000,7.0000000000
1717675331038,39.0000000000,204.0000000000,459.0000000000,503.0000000000,143.0000000000,8.0000000000
1717675331038,39.0000000000,203.0000000000,454.0000000000,499.0000000000,142.0000000000,8.0000000000
1717675331038,39.0000000000,201.0000000000,450.0000000000,494.0000000000,141.0000000000,7.0000000000
1717675331038,39.0000000000,199.0000000000,447.0000000000,488.0000000000,141.0000000000,15.0000000000
1717675331052,39.0000000000,199.0000000000,443.0000000000,484.0000000000,140.0000000000,15.0000000000
1717675331053,39.0000000000,197.0000000000,440.0000000000,480.0000000000,139.0000000000,15.0000000000
1717675331053,39.0000000000,196.0000000000,435.0000000000,476.0000000000,138.0000000000,15.0000000000
1717675331053,38.0000000000,194.0000000000,432.0000000000,472.0000000000,137.0000000000,15.0000000000
1717675331054,38.0000000000,193.0000000000,428.0000000000,467.0000000000,135.0000000000,14.0000000000
1717675331054,38.0000000000,192.0000000000,423.0000000000,463.0000000000,135.0000000000,14.0000000000
1717675331054,38.0000000000,191.0000000000,471.0000000000,460.0000000000,135.0000000000,14.0000000000
1717675331054,38.0000000000,190.0000000000,540.0000000000,473.0000000000,134.0000000000,14.0000000000
1717675331068,36.0000000000,189.0000000000,534.0000000000,518.0000000000,132.0000000000,14.0000000000
1717675331068,37.0000000000,188.0000000000,527.0000000000,512.0000000000,131.0000000000,14.0000000000
1717675331069,36.0000000000,186.0000000000,523.0000000000,507.0000000000,131.0000000000,14.0000000000
1717675331069,36.0000000000,185.0000000000,518.0000000000,502.0000000000,131.0000000000,14.0000000000
1717675331069,35.0000000000,184.0000000000,515.0000000000,497.0000000000,129.0000000000,14.0000000000
1717675331069,35.0000000000,183.0000000000,510.0000000000,492.0000000000,129.0000000000,14.0000000000
1717675331069,35.0000000000,182.0000000000,505.0000000000,487.0000000000,128.0000000000,12.0000000000
1717675331069,35.0000000000,180.0000000000,500.0000000000,483.0000000000,127.0000000000,13.0000000000
1717675331083,35.0000000000,179.0000000000,496.0000000000,478.0000000000,127.0000000000,12.0000000000
1717675331083,35.0000000000,179.0000000000,492.0000000000,614.0000000000,141.0000000000,13.0000000000
1717675331083,35.0000000000,177.0000000000,487.0000000000,606.0000000000,140.0000000000,12.0000000000
1717675331083,35.0000000000,176.0000000000,483.0000000000,600.0000000000,139.0000000000,13.0000000000
1717675331084,34.0000000000,176.0000000000,479.0000000000,593.0000000000,137.0000000000,12.0000000000
1717675331084,34.0000000000,174.0000000000,475.0000000000,587.0000000000,136.0000000000,12.0000000000
1717675331084,33.0000000000,173.0000000000,472.0000000000,580.0000000000,135.0000000000,12.0000000000
1717675331098,33.0000000000,172.0000000000,467.0000000000,575.0000000000,135.0000000000,12.0000000000
1717675331098,33.0000000000,171.0000000000,463.0000000000,568.0000000000,134.0000000000,12.0000000000
1717675331099,33.0000000000,169.0000000000,460.0000000000,563.0000000000,134.0000000000,12.0000000000
1717675331099,33.0000000000,168.0000000000,457.0000000000,557.0000000000,132.0000000000,12.0000000000
1717675331099,33.0000000000,167.0000000000,454.0000000000,551.0000000000,131.0000000000,11.0000000000
1717675331099,33.0000000000,167.0000000000,449.0000000000,545.0000000000,131.0000000000,12.0000000000
1717675331099,32.0000000000,166.0000000000,467.0000000000,540.0000000000,129.0000000000,11.0000000000
1717675331099,32.0000000000,164.0000000000,462.0000000000,536.0000000000,129.0000000000,12.0000000000
1717675331113,31.0000000000,163.0000000000,457.0000000000,529.0000000000,127.0000000000,12.0000000000
1717675331113,31.0000000000,163.0000000000,454.0000000000,525.0000000000,127.0000000000,12.0000000000
1717675331113,31.0000000000,162.0000000000,449.0000000000,520.0000000000,127.0000000000,11.0000000000
1717675331114,31.0000000000,161.0000000000,446.0000000000,516.0000000000,126.0000000000,11.0000000000
1717675331114,31.0000000000,159.0000000000,443.0000000000,511.0000000000,125.0000000000,11.0000000000
1717675331114,31.0000000000,159.0000000000,439.0000000000,507.0000000000,144.0000000000,11.0000000000
1717675331114,30.0000000000,158.0000000000,435.0000000000,568.0000000000,179.0000000000,11.0000000000
1717675331114,31.0000000000,157.0000000000,432.0000000000,560.0000000000,178.0000000000,11.0000000000
1717675331129,30.0000000000,156.0000000000,428.0000000000,555.0000000000,177.0000000000,11.0000000000
1717675331130,30.0000000000,156.0000000000,426.0000000000,548.0000000000,176.0000000000,11.0000000000
1717675331130,30.0000000000,153.0000000000,423.0000000000,543.0000000000,175.0000000000,10.0000000000
1717675331130,30.0000000000,153.0000000000,419.0000000000,537.0000000000,174.0000000000,11.0000000000
1717675331130,29.0000000000,152.0000000000,416.0000000000,532.0000000000,172.0000000000,11.0000000000
1717675331130,29.0000000000,152.0000000000,414.0000000000,527.0000000000,171.0000000000,11.0000000000
1717675331130,29.0000000000,151.0000000000,411.0000000000,521.0000000000,169.0000000000,9.0000000000
1717675331130,29.0000000000,150.0000000000,408.0000000000,518.0000000000,168.0000000000,10.0000000000
1717675331131,29.0000000000,149.0000000000,404.0000000000,522.0000000000,167.0000000000,9.0000000000
1717675331146,28.0000000000,147.0000000000,401.0000000000,516.0000000000,166.0000000000,9.0000000000
1717675331147,28.0000000000,147.0000000000,399.0000000000,512.0000000000,171.0000000000,10.0000000000
1717675331148,28.0000000000,146.0000000000,396.0000000000,507.0000000000,169.0000000000,10.0000000000
1717675331148,28.0000000000,145.0000000000,393.0000000000,502.0000000000,167.0000000000,9.0000000000
1717675331148,28.0000000000,144.0000000000,390.0000000000,498.0000000000,167.0000000000,9.0000000000
1717675331148,28.0000000000,143.0000000000,387.0000000000,494.0000000000,166.0000000000,9.0000000000
1717675331149,27.0000000000,143.0000000000,385.0000000000,489.0000000000,164.0000000000,9.0000000000
1717675331149,27.0000000000,142.0000000000,383.0000000000,486.0000000000,163.0000000000,9.0000000000
1717675331149,28.0000000000,141.0000000000,472.0000000000,482.0000000000,163.0000000000,9.0000000000
1717675331149,27.0000000000,141.0000000000,467.0000000000,478.0000000000,161.0000000000,9.0000000000
1717675331150,27.0000000000,140.0000000000,462.0000000000,473.0000000000,159.0000000000,9.0000000000
1717675331177,27.0000000000,139.0000000000,459.0000000000,470.0000000000,159.0000000000,9.0000000000
1717675331177,27.0000000000,138.0000000000,455.0000000000,465.0000000000,159.0000000000,9.0000000000
1717675331177,27.0000000000,137.0000000000,451.0000000000,463.0000000000,157.0000000000,9.0000000000
1717675331177,25.0000000000,136.0000000000,447.0000000000,459.0000000000,156.0000000000,9.0000000000
1717675331177,25.0000000000,135.0000000000,444.0000000000,455.0000000000,156.0000000000,9.0000000000
1717675331178,26.0000000000,135.0000000000,440.0000000000,451.0000000000,154.0000000000,9.0000000000
1717675331178,26.0000000000,135.0000000000,436.0000000000,448.0000000000,153.0000000000,9.0000000000
1717675331178,25.0000000000,134.0000000000,432.0000000000,444.0000000000,152.0000000000,7.0000000000
1717675331178,25.0000000000,133.0000000000,430.0000000000,440.0000000000,152.0000000000,7.0000000000
1717675331178,25.0000000000,132.0000000000,427.0000000000,438.0000000000,152.0000000000,7.0000000000
1717675331178,25.0000000000,131.0000000000,423.0000000000,434.0000000000,151.0000000000,8.0000000000
1717675331178,25.0000000000,131.0000000000,419.0000000000,431.0000000000,150.0000000000,8.0000000000
1717675331178,24.0000000000,130.0000000000,417.0000000000,428.0000000000,148.0000000000,7.0000000000
1717675331178,25.0000000000,129.0000000000,414.0000000000,423.0000000000,147.0000000000,7.0000000000
1717675331178,24.0000000000,128.0000000000,411.0000000000,422.0000000000,147.0000000000,7.0000000000
1717675331195,24.0000000000,127.0000000000,408.0000000000,418.0000000000,145.0000000000,7.0000000000
1717675331195,24.0000000000,127.0000000000,404.0000000000,415.0000000000,145.0000000000,7.0000000000
1717675331195,24.0000000000,126.0000000000,401.0000000000,412.0000000000,144.0000000000,7.0000000000
1717675331196,24.0000000000,126.0000000000,399.0000000000,409.0000000000,143.0000000000,7.0000000000
1717675331196,24.0000000000,125.0000000000,396.0000000000,406.0000000000,143.0000000000,7.0000000000
1717675331196,24.0000000000,125.0000000000,393.0000000000,403.0000000000,142.0000000000,7.0000000000
1717675331196,24.0000000000,124.0000000000,391.0000000000,400.0000000000,140.0000000000,7.0000000000
1717675331196,24.0000000000,123.0000000000,387.0000000000,398.0000000000,140.0000000000,7.0000000000
1717675331196,24.0000000000,123.0000000000,385.0000000000,477.0000000000,140.0000000000,11.0000000000
1717675331210,23.0000000000,122.0000000000,382.0000000000,532.0000000000,139.0000000000,11.0000000000
1717675331211,23.0000000000,121.0000000000,380.0000000000,537.0000000000,137.0000000000,11.0000000000
1717675331211,23.0000000000,120.0000000000,376.0000000000,569.0000000000,136.0000000000,10.0000000000
1717675331211,23.0000000000,120.0000000000,375.0000000000,563.0000000000,135.0000000000,11.0000000000
1717675331211,23.0000000000,119.0000000000,371.0000000000,556.0000000000,135.0000000000,11.0000000000
1717675331211,22.0000000000,119.0000000000,369.0000000000,551.0000000000,135.0000000000,10.0000000000
1717675331212,23.0000000000,118.0000000000,367.0000000000,545.0000000000,134.0000000000,9.0000000000
1717675331212,22.0000000000,117.0000000000,364.0000000000,540.0000000000,132.0000000000,9.0000000000
1717675331226,22.0000000000,116.0000000000,361.0000000000,536.0000000000,131.0000000000,10.0000000000
1717675331226,22.0000000000,115.0000000000,359.0000000000,530.0000000000,131.0000000000,9.0000000000
1717675331226,22.0000000000,115.0000000000,358.0000000000,524.0000000000,131.0000000000,9.0000000000
1717675331226,21.0000000000,114.0000000000,355.0000000000,519.0000000000,129.0000000000,9.0000000000
1717675331227,22.0000000000,114.0000000000,352.0000000000,515.0000000000,128.0000000000,9.0000000000
1717675331227,22.0000000000,113.0000000000,350.0000000000,511.0000000000,127.0000000000,9.0000000000
1717675331227,22.0000000000,113.0000000000,348.0000000000,505.0000000000,127.0000000000,9.0000000000
1717675331241,21.0000000000,112.0000000000,372.0000000000,502.0000000000,126.0000000000,9.0000000000
1717675331243,20.0000000000,112.0000000000,369.0000000000,498.0000000000,126.0000000000,9.0000000000
1717675331243,20.0000000000,111.0000000000,366.0000000000,552.0000000000,125.0000000000,9.0000000000
1717675331243,20.0000000000,111.0000000000,364.0000000000,569.0000000000,124.0000000000,8.0000000000
1717675331244,20.0000000000,110.0000000000,361.0000000000,563.0000000000,124.0000000000,9.0000000000
1717675331244,20.0000000000,109.0000000000,358.0000000000,558.0000000000,123.0000000000,9.0000000000
1717675331244,20.0000000000,108.0000000000,355.0000000000,551.0000000000,122.0000000000,8.0000000000
1717675331244,20.0000000000,108.0000000000,352.0000000000,546.0000000000,121.0000000000,8.0000000000
1717675331245,20.0000000000,107.0000000000,350.0000000000,540.0000000000,121.0000000000,8.0000000000
1717675331245,19.0000000000,107.0000000000,348.0000000000,536.0000000000,120.0000000000,8.0000000000
1717675331245,19.0000000000,106.0000000000,345.0000000000,531.0000000000,120.0000000000,7.0000000000
1717675331271,19.0000000000,106.0000000000,343.0000000000,526.0000000000,119.0000000000,8.0000000000
1717675331272,19.0000000000,105.0000000000,341.0000000000,520.0000000000,119.0000000000,7.0000000000
1717675331272,19.0000000000,104.0000000000,343.0000000000,516.0000000000,118.0000000000,8.0000000000
1717675331272,19.0000000000,180.0000000000,408.0000000000,512.0000000000,116.0000000000,8.0000000000
1717675331272,19.0000000000,179.0000000000,403.0000000000,507.0000000000,116.0000000000,7.0000000000
1717675331272,19.0000000000,177.0000000000,401.0000000000,503.0000000000,115.0000000000,8.0000000000
1717675331272,19.0000000000,176.0000000000,398.0000000000,611.0000000000,115.0000000000,8.0000000000
1717675331272,19.0000000000,175.0000000000,394.0000000000,711.0000000000,114.0000000000,7.0000000000
1717675331272,19.0000000000,174.0000000000,391.0000000000,702.0000000000,114.0000000000,8.0000000000
1717675331273,20.0000000000,172.0000000000,388.0000000000,692.0000000000,113.0000000000,8.0000000000
1717675331273,19.0000000000,171.0000000000,385.0000000000,684.0000000000,112.0000000000,7.0000000000
1717675331273,19.0000000000,170.0000000000,383.0000000000,679.0000000000,112.0000000000,8.0000000000
1717675331273,19.0000000000,180.0000000000,380.0000000000,670.0000000000,112.0000000000,8.0000000000
1717675331273,19.0000000000,179.0000000000,377.0000000000,663.0000000000,112.0000000000,7.0000000000
1717675331273,19.0000000000,177.0000000000,374.0000000000,655.0000000000,111.0000000000,7.0000000000
1717675331291,19.0000000000,176.0000000000,371.0000000000,649.0000000000,110.0000000000,7.0000000000
1717675331292,19.0000000000,175.0000000000,368.0000000000,642.0000000000,109.0000000000,7.0000000000
1717675331292,19.0000000000,174.0000000000,367.0000000000,635.0000000000,108.0000000000,7.0000000000
1717675331292,22.0000000000,172.0000000000,364.0000000000,721.0000000000,174.0000000000,7.0000000000
1717675331292,22.0000000000,171.0000000000,360.0000000000,712.0000000000,171.0000000000,7.0000000000
1717675331293,22.0000000000,169.0000000000,358.0000000000,704.0000000000,169.0000000000,7.0000000000
1717675331293,22.0000000000,168.0000000000,355.0000000000,696.0000000000,167.0000000000,7.0000000000
1717675331293,21.0000000000,167.0000000000,353.0000000000,687.0000000000,167.0000000000,7.0000000000
1717675331293,21.0000000000,167.0000000000,352.0000000000,679.0000000000,167.0000000000,7.0000000000
1717675331294,20.0000000000,166.0000000000,508.0000000000,672.0000000000,164.0000000000,7.0000000000
1717675331294,20.0000000000,164.0000000000,500.0000000000,664.0000000000,163.0000000000,7.0000000000
1717675331311,20.0000000000,163.0000000000,496.0000000000,657.0000000000,163.0000000000,7.0000000000
1717675331312,20.0000000000,163.0000000000,492.0000000000,650.0000000000,161.0000000000,7.0000000000
1717675331312,20.0000000000,161.0000000000,487.0000000000,644.0000000000,160.0000000000,7.0000000000
1717675331313,20.0000000000,160.0000000000,483.0000000000,637.0000000000,159.0000000000,7.0000000000
1717675331313,19.0000000000,159.0000000000,480.0000000000,631.0000000000,159.0000000000,7.0000000000
1717675331314,19.0000000000,158.0000000000,476.0000000000,624.0000000000,158.0000000000,7.0000000000
1717675331314,20.0000000000,158.0000000000,472.0000000000,619.0000000000,156.0000000000,7.0000000000
1717675331314,19.0000000000,156.0000000000,467.0000000000,612.0000000000,156.0000000000,7.0000000000
1717675331314,19.0000000000,156.0000000000,463.0000000000,606.0000000000,155.0000000000,7.0000000000
1717675331315,19.0000000000,155.0000000000,460.0000000000,600.0000000000,153.0000000000,7.0000000000
1717675331315,19.0000000000,153.0000000000,456.0000000000,595.0000000000,152.0000000000,7.0000000000
1717675331331,19.0000000000,152.0000000000,452.0000000000,589.0000000000,152.0000000000,7.0000000000
1717675331332,19.0000000000,152.0000000000,449.0000000000,583.0000000000,151.0000000000,7.0000000000
1717675331332,19.0000000000,151.0000000000,446.0000000000,577.0000000000,150.0000000000,7.0000000000
1717675331332,19.0000000000,150.0000000000,442.0000000000,573.0000000000,149.0000000000,7.0000000000
1717675331332,19.0000000000,149.0000000000,439.0000000000,568.0000000000,148.0000000000,6.0000000000
1717675331332,19.0000000000,147.0000000000,435.0000000000,562.0000000000,147.0000000000,7.0000000000
1717675331332,18.0000000000,147.0000000000,433.0000000000,556.0000000000,146.0000000000,7.0000000000
1717675331332,18.0000000000,146.0000000000,429.0000000000,552.0000000000,145.0000000000,7.0000000000
1717675331332,18.0000000000,145.0000000000,425.0000000000,547.0000000000,144.0000000000,6.0000000000
1717675331347,18.0000000000,144.0000000000,423.0000000000,542.0000000000,143.0000000000,7.0000000000
1717675331348,17.0000000000,143.0000000000,420.0000000000,537.0000000000,143.0000000000,7.0000000000
1717675331348,17.0000000000,143.0000000000,486.0000000000,534.0000000000,142.0000000000,7.0000000000
1717675331348,17.0000000000,142.0000000000,481.0000000000,529.0000000000,141.0000000000,7.0000000000
1717675331348,17.0000000000,141.0000000000,476.0000000000,534.0000000000,140.0000000000,7.0000000000
1717675331348,17.0000000000,140.0000000000,473.0000000000,527.0000000000,139.0000000000,6.0000000000
1717675331348,17.0000000000,139.0000000000,469.0000000000,523.0000000000,139.0000000000,7.0000000000
1717675331349,17.0000000000,139.0000000000,465.0000000000,519.0000000000,137.0000000000,6.0000000000
1717675331363,16.0000000000,137.0000000000,461.0000000000,515.0000000000,136.0000000000,6.0000000000
1717675331364,16.0000000000,137.0000000000,458.0000000000,511.0000000000,135.0000000000,6.0000000000
1717675331364,17.0000000000,135.0000000000,454.0000000000,505.0000000000,135.0000000000,6.0000000000
1717675331364,17.0000000000,135.0000000000,449.0000000000,503.0000000000,135.0000000000,6.0000000000
1717675331364,16.0000000000,135.0000000000,446.0000000000,497.0000000000,134.0000000000,6.0000000000
1717675331364,16.0000000000,134.0000000000,444.0000000000,493.0000000000,133.0000000000,6.0000000000
1717675331364,15.0000000000,132.0000000000,440.0000000000,489.0000000000,131.0000000000,6.0000000000
1717675331364,16.0000000000,132.0000000000,436.0000000000,486.0000000000,131.0000000000,6.0000000000
1717675331364,16.0000000000,131.0000000000,432.0000000000,482.0000000000,130.0000000000,6.0000000000
1717675331377,15.0000000000,131.0000000000,448.0000000000,479.0000000000,129.0000000000,6.0000000000
1717675331378,15.0000000000,130.0000000000,552.0000000000,475.0000000000,129.0000000000,6.0000000000
1717675331378,15.0000000000,191.0000000000,546.0000000000,472.0000000000,127.0000000000,5.0000000000
1717675331379,15.0000000000,189.0000000000,541.0000000000,467.0000000000,127.0000000000,6.0000000000
1717675331379,15.0000000000,188.0000000000,536.0000000000,463.0000000000,127.0000000000,6.0000000000
1717675331380,15.0000000000,186.0000000000,531.0000000000,460.0000000000,145.0000000000,7.0000000000
1717675331380,15.0000000000,185.0000000000,526.0000000000,456.0000000000,143.0000000000,7.0000000000
1717675331380,15.0000000000,184.0000000000,521.0000000000,452.0000000000,143.0000000000,7.0000000000
1717675331381,15.0000000000,182.0000000000,518.0000000000,449.0000000000,142.0000000000,7.0000000000
1717675331415,15.0000000000,181.0000000000,513.0000000000,446.0000000000,141.0000000000,7.0000000000
1717675331416,15.0000000000,179.0000000000,508.0000000000,443.0000000000,140.0000000000,7.0000000000
1717675331416,15.0000000000,179.0000000000,504.0000000000,440.0000000000,139.0000000000,7.0000000000
1717675331416,15.0000000000,177.0000000000,501.0000000000,435.0000000000,138.0000000000,7.0000000000
1717675331416,15.0000000000,176.0000000000,496.0000000000,433.0000000000,137.0000000000,7.0000000000
1717675331416,15.0000000000,175.0000000000,492.0000000000,430.0000000000,142.0000000000,7.0000000000
1717675331417,15.0000000000,174.0000000000,487.0000000000,427.0000000000,141.0000000000,7.0000000000
1717675331417,14.0000000000,173.0000000000,483.0000000000,423.0000000000,140.0000000000,7.0000000000
1717675331417,14.0000000000,172.0000000000,481.0000000000,419.0000000000,139.0000000000,7.0000000000
1717675331417,15.0000000000,171.0000000000,477.0000000000,417.0000000000,139.0000000000,7.0000000000
1717675331417,15.0000000000,169.0000000000,472.0000000000,414.0000000000,137.0000000000,6.0000000000
1717675331417,14.0000000000,167.0000000000,468.0000000000,416.0000000000,135.0000000000,7.0000000000
1717675331417,15.0000000000,167.0000000000,465.0000000000,428.0000000000,135.0000000000,6.0000000000
1717675331418,14.0000000000,166.0000000000,462.0000000000,423.0000000000,135.0000000000,6.0000000000
1717675331418,14.0000000000,166.0000000000,459.0000000000,420.0000000000,134.0000000000,7.0000000000
1717675331418,14.0000000000,164.0000000000,455.0000000000,433.0000000000,133.0000000000,7.0000000000
1717675331418,14.0000000000,163.0000000000,452.0000000000,465.0000000000,132.0000000000,6.0000000000
1717675331418,14.0000000000,162.0000000000,448.0000000000,460.0000000000,131.0000000000,6.0000000000
1717675331418,14.0000000000,161.0000000000,445.0000000000,457.0000000000,145.0000000000,6.0000000000
1717675331419,14.0000000000,159.0000000000,441.0000000000,452.0000000000,144.0000000000,6.0000000000
1717675331440,14.0000000000,159.0000000000,439.0000000000,448.0000000000,143.0000000000,6.0000000000
1717675331443,14.0000000000,158.0000000000,435.0000000000,444.0000000000,143.0000000000,6.0000000000
1717675331443,14.0000000000,157.0000000000,432.0000000000,441.0000000000,142.0000000000,6.0000000000
1717675331444,14.0000000000,156.0000000000,428.0000000000,438.0000000000,141.0000000000,6.0000000000
1717675331444,14.0000000000,156.0000000000,427.0000000000,433.0000000000,140.0000000000,6.0000000000
1717675331444,13.0000000000,155.0000000000,423.0000000000,430.0000000000,139.0000000000,6.0000000000
1717675331444,13.0000000000,153.0000000000,457.0000000000,427.0000000000,139.0000000000,6.0000000000
1717675331445,13.0000000000,152.0000000000,453.0000000000,423.0000000000,137.0000000000,6.0000000000
1717675331445,13.0000000000,152.0000000000,449.0000000000,419.0000000000,136.0000000000,6.0000000000
1717675331445,13.0000000000,151.0000000000,446.0000000000,415.0000000000,135.0000000000,6.0000000000
1717675331445,13.0000000000,150.0000000000,442.0000000000,412.0000000000,135.0000000000,5.0000000000
1717675331446,12.0000000000,149.0000000000,438.0000000000,409.0000000000,134.0000000000,6.0000000000
1717675331446,13.0000000000,147.0000000000,435.0000000000,406.0000000000,133.0000000000,6.0000000000
1717675331446,12.0000000000,147.0000000000,432.0000000000,403.0000000000,132.0000000000,6.0000000000
1717675331447,12.0000000000,146.0000000000,428.0000000000,401.0000000000,131.0000000000,5.0000000000
1717675331463,12.0000000000,146.0000000000,424.0000000000,398.0000000000,130.0000000000,5.0000000000
1717675331463,12.0000000000,144.0000000000,422.0000000000,395.0000000000,130.0000000000,5.0000000000
1717675331463,12.0000000000,144.0000000000,479.0000000000,391.0000000000,129.0000000000,5.0000000000
1717675331463,12.0000000000,143.0000000000,473.0000000000,388.0000000000,128.0000000000,5.0000000000
1717675331463,12.0000000000,142.0000000000,469.0000000000,438.0000000000,127.0000000000,5.0000000000
1717675331463,12.0000000000,142.0000000000,464.0000000000,440.0000000000,127.0000000000,5.0000000000
1717675331464,12.0000000000,141.0000000000,462.0000000000,435.0000000000,126.0000000000,5.0000000000
1717675331464,12.0000000000,140.0000000000,457.0000000000,431.0000000000,125.0000000000,5.0000000000
1717675331464,13.0000000000,139.0000000000,454.0000000000,428.0000000000,124.0000000000,6.0000000000
1717675331477,26.0000000000,137.0000000000,449.0000000000,423.0000000000,124.0000000000,6.0000000000
1717675331478,26.0000000000,137.0000000000,447.0000000000,420.0000000000,123.0000000000,6.0000000000
1717675331478,26.0000000000,136.0000000000,443.0000000000,417.0000000000,123.0000000000,6.0000000000
1717675331478,25.0000000000,135.0000000000,440.0000000000,414.0000000000,122.0000000000,5.0000000000
1717675331478,25.0000000000,135.0000000000,435.0000000000,410.0000000000,121.0000000000,6.0000000000
1717675331478,25.0000000000,134.0000000000,432.0000000000,407.0000000000,120.0000000000,6.0000000000
1717675331478,25.0000000000,134.0000000000,429.0000000000,403.0000000000,120.0000000000,5.0000000000
1717675331478,24.0000000000,133.0000000000,425.0000000000,400.0000000000,119.0000000000,5.0000000000
1717675331493,24.0000000000,131.0000000000,422.0000000000,397.0000000000,118.0000000000,5.0000000000
1717675331493,24.0000000000,131.0000000000,419.0000000000,393.0000000000,118.0000000000,6.0000000000
1717675331493,27.0000000000,130.0000000000,416.0000000000,391.0000000000,117.0000000000,6.0000000000
1717675331494,26.0000000000,130.0000000000,413.0000000000,388.0000000000,115.0000000000,6.0000000000
1717675331494,25.0000000000,128.0000000000,411.0000000000,385.0000000000,115.0000000000,6.0000000000
1717675331494,26.0000000000,127.0000000000,408.0000000000,382.0000000000,115.0000000000,6.0000000000
1717675331494,25.0000000000,127.0000000000,405.0000000000,380.0000000000,114.0000000000,5.0000000000
1717675331494,25.0000000000,127.0000000000,402.0000000000,377.0000000000,113.0000000000,6.0000000000
1717675331494,24.0000000000,126.0000000000,399.0000000000,375.0000000000,113.0000000000,6.0000000000
1717675331507,24.0000000000,125.0000000000,396.0000000000,371.0000000000,112.0000000000,6.0000000000
1717675331508,25.0000000000,124.0000000000,394.0000000000,369.0000000000,112.0000000000,6.0000000000
1717675331508,24.0000000000,124.0000000000,391.0000000000,368.0000000000,111.0000000000,6.0000000000
1717675331508,24.0000000000,124.0000000000,388.0000000000,365.0000000000,110.0000000000,5.0000000000
1717675331509,24.0000000000,123.0000000000,385.0000000000,363.0000000000,110.0000000000,5.0000000000
1717675331509,24.0000000000,121.0000000000,384.0000000000,359.0000000000,109.0000000000,5.0000000000
1717675331509,24.0000000000,124.0000000000,381.0000000000,425.0000000000,156.0000000000,4.0000000000
1717675331522,24.0000000000,124.0000000000,378.0000000000,476.0000000000,162.0000000000,6.0000000000
1717675331524,23.0000000000,123.0000000000,376.0000000000,471.0000000000,161.0000000000,6.0000000000
1717675331524,23.0000000000,121.0000000000,374.0000000000,466.0000000000,159.0000000000,4.0000000000
1717675331525,24.0000000000,120.0000000000,371.0000000000,461.0000000000,159.0000000000,5.0000000000
1717675331525,23.0000000000,120.0000000000,368.0000000000,457.0000000000,157.0000000000,4.0000000000
1717675331525,23.0000000000,120.0000000000,366.0000000000,454.0000000000,156.0000000000,5.0000000000
1717675331526,23.0000000000,119.0000000000,364.0000000000,449.0000000000,156.0000000000,5.0000000000
1717675331526,23.0000000000,119.0000000000,361.0000000000,446.0000000000,155.0000000000,5.0000000000
1717675331527,23.0000000000,118.0000000000,359.0000000000,443.0000000000,153.0000000000,4.0000000000
1717675331527,22.0000000000,116.0000000000,356.0000000000,438.0000000000,152.0000000000,4.0000000000
1717675331528,22.0000000000,116.0000000000,355.0000000000,435.0000000000,152.0000000000,5.0000000000
1717675331558,22.0000000000,115.0000000000,352.0000000000,431.0000000000,151.0000000000,4.0000000000
1717675331559,22.0000000000,115.0000000000,350.0000000000,428.0000000000,150.0000000000,4.0000000000
1717675331559,22.0000000000,114.0000000000,348.0000000000,423.0000000000,149.0000000000,4.0000000000
1717675331559,22.0000000000,114.0000000000,345.0000000000,420.0000000000,148.0000000000,4.0000000000
1717675331559,22.0000000000,113.0000000000,344.0000000000,416.0000000000,147.0000000000,4.0000000000
1717675331559,22.0000000000,113.0000000000,342.0000000000,414.0000000000,145.0000000000,4.0000000000
1717675331559,21.0000000000,112.0000000000,339.0000000000,410.0000000000,144.0000000000,4.0000000000
1717675331559,21.0000000000,112.0000000000,337.0000000000,407.0000000000,143.0000000000,4.0000000000
1717675331559,21.0000000000,111.0000000000,335.0000000000,444.0000000000,143.0000000000,4.0000000000
1717675331559,20.0000000000,110.0000000000,333.0000000000,455.0000000000,142.0000000000,4.0000000000
1717675331559,20.0000000000,110.0000000000,331.0000000000,451.0000000000,141.0000000000,3.0000000000
1717675331560,20.0000000000,109.0000000000,329.0000000000,446.0000000000,141.0000000000,4.0000000000
1717675331560,20.0000000000,108.0000000000,327.0000000000,441.0000000000,140.0000000000,3.0000000000
1717675331560,20.0000000000,108.0000000000,325.0000000000,439.0000000000,139.0000000000,3.0000000000
1717675331560,20.0000000000,107.0000000000,323.0000000000,435.0000000000,137.0000000000,4.0000000000
1717675331560,19.0000000000,106.0000000000,350.0000000000,431.0000000000,137.0000000000,3.0000000000
1717675331560,19.0000000000,106.0000000000,365.0000000000,427.0000000000,135.0000000000,4.0000000000
1717675331575,22.0000000000,105.0000000000,361.0000000000,423.0000000000,135.0000000000,4.0000000000
1717675331575,22.0000000000,105.0000000000,359.0000000000,420.0000000000,135.0000000000,4.0000000000
1717675331575,21.0000000000,103.0000000000,355.0000000000,416.0000000000,134.0000000000,3.0000000000
1717675331576,21.0000000000,103.0000000000,353.0000000000,412.0000000000,133.0000000000,3.0000000000
1717675331576,20.0000000000,103.0000000000,351.0000000000,409.0000000000,132.0000000000,3.0000000000
1717675331576,20.0000000000,103.0000000000,348.0000000000,407.0000000000,131.0000000000,4.0000000000
1717675331576,20.0000000000,102.0000000000,345.0000000000,403.0000000000,131.0000000000,3.0000000000
1717675331576,19.0000000000,101.0000000000,344.0000000000,399.0000000000,129.0000000000,3.0000000000
1717675331576,20.0000000000,100.0000000000,340.0000000000,396.0000000000,129.0000000000,3.0000000000
1717675331591,19.0000000000,99.0000000000,338.0000000000,394.0000000000,128.0000000000,3.0000000000
1717675331593,19.0000000000,99.0000000000,335.0000000000,391.0000000000,127.0000000000,6.0000000000
1717675331593,25.0000000000,99.0000000000,334.0000000000,388.0000000000,127.0000000000,6.0000000000
1717675331593,25.0000000000,99.0000000000,332.0000000000,385.0000000000,126.0000000000,6.0000000000
1717675331593,25.0000000000,99.0000000000,329.0000000000,383.0000000000,126.0000000000,6.0000000000
1717675331594,24.0000000000,98.0000000000,327.0000000000,380.0000000000,125.0000000000,6.0000000000
1717675331594,24.0000000000,97.0000000000,326.0000000000,377.0000000000,124.0000000000,6.0000000000
1717675331594,24.0000000000,96.0000000000,323.0000000000,375.0000000000,124.0000000000,6.0000000000
1717675331594,24.0000000000,96.0000000000,321.0000000000,371.0000000000,123.0000000000,6.0000000000
1717675331623,24.0000000000,96.0000000000,319.0000000000,369.0000000000,122.0000000000,6.0000000000
1717675331624,24.0000000000,110.0000000000,317.0000000000,367.0000000000,121.0000000000,6.0000000000
1717675331624,24.0000000000,108.0000000000,315.0000000000,413.0000000000,120.0000000000,6.0000000000
1717675331624,24.0000000000,108.0000000000,313.0000000000,408.0000000000,120.0000000000,6.0000000000
1717675331625,24.0000000000,107.0000000000,312.0000000000,404.0000000000,120.0000000000,6.0000000000
1717675331625,24.0000000000,105.0000000000,310.0000000000,402.0000000000,119.0000000000,6.0000000000
1717675331625,24.0000000000,105.0000000000,319.0000000000,399.0000000000,118.0000000000,6.0000000000
1717675331625,24.0000000000,104.0000000000,417.0000000000,480.0000000000,117.0000000000,5.0000000000
1717675331625,24.0000000000,103.0000000000,412.0000000000,476.0000000000,116.0000000000,5.0000000000
1717675331625,24.0000000000,103.0000000000,408.0000000000,472.0000000000,116.0000000000,5.0000000000
1717675331625,24.0000000000,103.0000000000,404.0000000000,467.0000000000,115.0000000000,5.0000000000
1717675331625,24.0000000000,102.0000000000,402.0000000000,463.0000000000,115.0000000000,6.0000000000
1717675331626,23.0000000000,101.0000000000,399.0000000000,459.0000000000,114.0000000000,5.0000000000
1717675331626,23.0000000000,100.0000000000,396.0000000000,455.0000000000,113.0000000000,6.0000000000
1717675331626,23.0000000000,100.0000000000,391.0000000000,451.0000000000,112.0000000000,5.0000000000
1717675331626,22.0000000000,99.0000000000,390.0000000000,447.0000000000,112.0000000000,6.0000000000
1717675331626,22.0000000000,99.0000000000,387.0000000000,444.0000000000,111.0000000000,6.0000000000
1717675331626,22.0000000000,98.0000000000,385.0000000000,440.0000000000,111.0000000000,5.0000000000
1717675331641,22.0000000000,98.0000000000,382.0000000000,436.0000000000,110.0000000000,5.0000000000
1717675331641,22.0000000000,97.0000000000,379.0000000000,432.0000000000,110.0000000000,6.0000000000
1717675331641,22.0000000000,97.0000000000,376.0000000000,430.0000000000,118.0000000000,5.0000000000
1717675331641,22.0000000000,96.0000000000,374.0000000000,426.0000000000,117.0000000000,4.0000000000
1717675331641,21.0000000000,96.0000000000,371.0000000000,423.0000000000,115.0000000000,5.0000000000
1717675331642,21.0000000000,95.0000000000,368.0000000000,419.0000000000,115.0000000000,4.0000000000
1717675331642,21.0000000000,95.0000000000,367.0000000000,415.0000000000,115.0000000000,4.0000000000
1717675331642,21.0000000000,94.0000000000,364.0000000000,412.0000000000,113.0000000000,5.0000000000
1717675331642,21.0000000000,94.0000000000,361.0000000000,409.0000000000,113.0000000000,4.0000000000
1717675331657,22.0000000000,94.0000000000,359.0000000000,407.0000000000,112.0000000000,4.0000000000
1717675331658,21.0000000000,92.0000000000,356.0000000000,404.0000000000,112.0000000000,4.0000000000
1717675331658,22.0000000000,92.0000000000,354.0000000000,400.0000000000,111.0000000000,5.0000000000
1717675331658,22.0000000000,92.0000000000,352.0000000000,398.0000000000,111.0000000000,5.0000000000
1717675331658,20.0000000000,91.0000000000,350.0000000000,395.0000000000,171.0000000000,4.0000000000
1717675331658,20.0000000000,91.0000000000,348.0000000000,398.0000000000,169.0000000000,4.0000000000
1717675331659,21.0000000000,91.0000000000,345.0000000000,395.0000000000,167.0000000000,4.0000000000
1717675331659,20.0000000000,90.0000000000,343.0000000000,391.0000000000,167.0000000000,5.0000000000
1717675331659,20.0000000000,89.0000000000,340.0000000000,388.0000000000,166.0000000000,4.0000000000
1717675331674,20.0000000000,89.0000000000,338.0000000000,385.0000000000,163.0000000000,5.0000000000
1717675331675,22.0000000000,89.0000000000,335.0000000000,383.0000000000,163.0000000000,4.0000000000
1717675331675,23.0000000000,88.0000000000,334.0000000000,380.0000000000,162.0000000000,4.0000000000
1717675331675,23.0000000000,88.0000000000,332.0000000000,377.0000000000,161.0000000000,4.0000000000
1717675331676,23.0000000000,88.0000000000,329.0000000000,376.0000000000,159.0000000000,4.0000000000
1717675331676,23.0000000000,87.0000000000,327.0000000000,372.0000000000,159.0000000000,4.0000000000
1717675331676,22.0000000000,87.0000000000,326.0000000000,369.0000000000,158.0000000000,4.0000000000
1717675331676,22.0000000000,86.0000000000,358.0000000000,368.0000000000,157.0000000000,4.0000000000
1717675331677,22.0000000000,96.0000000000,355.0000000000,364.0000000000,156.0000000000,4.0000000000
1717675331694,22.0000000000,112.0000000000,352.0000000000,362.0000000000,183.0000000000,4.0000000000
1717675331695,22.0000000000,112.0000000000,350.0000000000,423.0000000000,181.0000000000,4.0000000000
1717675331695,21.0000000000,111.0000000000,347.0000000000,419.0000000000,179.0000000000,4.0000000000
1717675331695,22.0000000000,110.0000000000,344.0000000000,415.0000000000,179.0000000000,4.0000000000
1717675331695,21.0000000000,109.0000000000,342.0000000000,412.0000000000,177.0000000000,3.0000000000
1717675331695,22.0000000000,108.0000000000,339.0000000000,409.0000000000,176.0000000000,3.0000000000
1717675331695,21.0000000000,108.0000000000,337.0000000000,405.0000000000,175.0000000000,3.0000000000
1717675331695,20.0000000000,107.0000000000,335.0000000000,401.0000000000,174.0000000000,4.0000000000
1717675331695,21.0000000000,106.0000000000,332.0000000000,398.0000000000,172.0000000000,4.0000000000
1717675331695,20.0000000000,105.0000000000,329.0000000000,396.0000000000,172.0000000000,3.0000000000
1717675331696,20.0000000000,103.0000000000,327.0000000000,391.0000000000,170.0000000000,3.0000000000
1717675331711,20.0000000000,103.0000000000,326.0000000000,388.0000000000,169.0000000000,3.0000000000
1717675331711,20.0000000000,103.0000000000,323.0000000000,385.0000000000,168.0000000000,3.0000000000
1717675331711,20.0000000000,102.0000000000,321.0000000000,383.0000000000,167.0000000000,3.0000000000
1717675331712,20.0000000000,102.0000000000,319.0000000000,380.0000000000,167.0000000000,3.0000000000
1717675331712,19.0000000000,101.0000000000,318.0000000000,376.0000000000,165.0000000000,3.0000000000
1717675331712,19.0000000000,100.0000000000,315.0000000000,374.0000000000,164.0000000000,3.0000000000
1717675331712,19.0000000000,100.0000000000,313.0000000000,371.0000000000,163.0000000000,3.0000000000
1717675331712,19.0000000000,99.0000000000,312.0000000000,368.0000000000,162.0000000000,3.0000000000
1717675331712,19.0000000000,99.0000000000,310.0000000000,366.0000000000,161.0000000000,3.0000000000
1717675331726,19.0000000000,98.0000000000,307.0000000000,363.0000000000,159.0000000000,3.0000000000
1717675331727,19.0000000000,97.0000000000,306.0000000000,359.0000000000,159.0000000000,3.0000000000
1717675331727,19.0000000000,97.0000000000,304.0000000000,358.0000000000,159.0000000000,3.0000000000
1717675331727,19.0000000000,96.0000000000,303.0000000000,355.0000000000,158.0000000000,3.0000000000
1717675331727,19.0000000000,96.0000000000,301.0000000000,353.0000000000,156.0000000000,3.0000000000
1717675331727,19.0000000000,96.0000000000,299.0000000000,352.0000000000,156.0000000000,3.0000000000
1717675331727,19.0000000000,95.0000000000,297.0000000000,349.0000000000,155.0000000000,3.0000000000
1717675331727,19.0000000000,94.0000000000,295.0000000000,347.0000000000,153.0000000000,3.0000000000
1717675331727,19.0000000000,94.0000000000,294.0000000000,344.0000000000,152.0000000000,3.0000000000
1717675331746,19.0000000000,93.0000000000,292.0000000000,376.0000000000,152.0000000000,3.0000000000
1717675331747,19.0000000000,93.0000000000,291.0000000000,373.0000000000,152.0000000000,3.0000000000
1717675331747,19.0000000000,92.0000000000,289.0000000000,369.0000000000,151.0000000000,3.0000000000
1717675331748,18.0000000000,92.0000000000,287.0000000000,368.0000000000,150.0000000000,3.0000000000
1717675331748,18.0000000000,91.0000000000,330.0000000000,368.0000000000,148.0000000000,3.0000000000
1717675331748,18.0000000000,89.0000000000,327.0000000000,365.0000000000,147.0000000000,3.0000000000
1717675331748,17.0000000000,89.0000000000,324.0000000000,362.0000000000,147.0000000000,3.0000000000
1717675331749,18.0000000000,89.0000000000,323.0000000000,359.0000000000,146.0000000000,3.0000000000
1717675331749,18.0000000000,89.0000000000,319.0000000000,356.0000000000,145.0000000000,3.0000000000
1717675331749,17.0000000000,88.0000000000,318.0000000000,354.0000000000,144.0000000000,3.0000000000
1717675331750,18.0000000000,88.0000000000,316.0000000000,352.0000000000,143.0000000000,3.0000000000
1717675331750,18.0000000000,88.0000000000,313.0000000000,349.0000000000,143.0000000000,3.0000000000
1717675331766,17.0000000000,88.0000000000,312.0000000000,346.0000000000,142.0000000000,3.0000000000
1717675331767,17.0000000000,87.0000000000,309.0000000000,344.0000000000,180.0000000000,2.0000000000
1717675331767,17.0000000000,86.0000000000,307.0000000000,342.0000000000,179.0000000000,3.0000000000
1717675331767,17.0000000000,86.0000000000,416.0000000000,339.0000000000,177.0000000000,2.0000000000
1717675331767,17.0000000000,85.0000000000,412.0000000000,337.0000000000,176.0000000000,3.0000000000
1717675331767,17.0000000000,84.0000000000,460.0000000000,335.0000000000,175.0000000000,3.0000000000
1717675331767,17.0000000000,84.0000000000,455.0000000000,334.0000000000,174.0000000000,3.0000000000
1717675331768,19.0000000000,83.0000000000,452.0000000000,423.0000000000,173.0000000000,3.0000000000
1717675331768,19.0000000000,83.0000000000,448.0000000000,418.0000000000,172.0000000000,3.0000000000
1717675331785,19.0000000000,83.0000000000,445.0000000000,414.0000000000,171.0000000000,2.0000000000
1717675331786,19.0000000000,83.0000000000,459.0000000000,412.0000000000,169.0000000000,2.0000000000
1717675331787,19.0000000000,81.0000000000,494.0000000000,408.0000000000,168.0000000000,3.0000000000
1717675331787,19.0000000000,81.0000000000,489.0000000000,403.0000000000,193.0000000000,2.0000000000
1717675331787,19.0000000000,81.0000000000,484.0000000000,401.0000000000,192.0000000000,3.0000000000
1717675331787,19.0000000000,81.0000000000,480.0000000000,398.0000000000,191.0000000000,3.0000000000
1717675331788,19.0000000000,79.0000000000,476.0000000000,395.0000000000,189.0000000000,3.0000000000
1717675331788,19.0000000000,79.0000000000,473.0000000000,460.0000000000,188.0000000000,3.0000000000
1717675331788,18.0000000000,79.0000000000,468.0000000000,476.0000000000,187.0000000000,3.0000000000
1717675331789,19.0000000000,79.0000000000,465.0000000000,473.0000000000,185.0000000000,2.0000000000
1717675331789,21.0000000000,79.0000000000,462.0000000000,468.0000000000,184.0000000000,3.0000000000
1717675331789,20.0000000000,78.0000000000,457.0000000000,464.0000000000,184.0000000000,3.0000000000
1717675331790,20.0000000000,78.0000000000,455.0000000000,460.0000000000,183.0000000000,2.0000000000
1717675331790,20.0000000000,112.0000000000,451.0000000000,455.0000000000,181.0000000000,3.0000000000
1717675331811,20.0000000000,112.0000000000,448.0000000000,452.0000000000,179.0000000000,2.0000000000
1717675331813,20.0000000000,110.0000000000,444.0000000000,448.0000000000,179.0000000000,2.0000000000
1717675331814,20.0000000000,110.0000000000,518.0000000000,444.0000000000,177.0000000000,2.0000000000
1717675331814,20.0000000000,109.0000000000,548.0000000000,440.0000000000,176.0000000000,3.0000000000
1717675331814,19.0000000000,108.0000000000,542.0000000000,437.0000000000,175.0000000000,4.0000000000
1717675331814,22.0000000000,108.0000000000,536.0000000000,433.0000000000,174.0000000000,4.0000000000
1717675331815,22.0000000000,107.0000000000,532.0000000000,430.0000000000,173.0000000000,3.0000000000
1717675331815,21.0000000000,105.0000000000,527.0000000000,425.0000000000,172.0000000000,4.0000000000
1717675331815,20.0000000000,105.0000000000,523.0000000000,423.0000000000,171.0000000000,4.0000000000
1717675331815,21.0000000000,104.0000000000,518.0000000000,419.0000000000,169.0000000000,5.0000000000
1717675331816,20.0000000000,103.0000000000,515.0000000000,415.0000000000,168.0000000000,5.0000000000
1717675331816,20.0000000000,103.0000000000,510.0000000000,412.0000000000,167.0000000000,5.0000000000
1717675331816,20.0000000000,102.0000000000,504.0000000000,409.0000000000,167.0000000000,5.0000000000
1717675331848,19.0000000000,102.0000000000,500.0000000000,487.0000000000,166.0000000000,4.0000000000
1717675331849,20.0000000000,101.0000000000,496.0000000000,481.0000000000,164.0000000000,5.0000000000
1717675331850,19.0000000000,100.0000000000,493.0000000000,477.0000000000,163.0000000000,4.0000000000
1717675331850,20.0000000000,99.0000000000,488.0000000000,473.0000000000,163.0000000000,5.0000000000
1717675331850,19.0000000000,99.0000000000,486.0000000000,468.0000000000,161.0000000000,5.0000000000
1717675331850,19.0000000000,99.0000000000,481.0000000000,463.0000000000,161.0000000000,4.0000000000
1717675331850,19.0000000000,97.0000000000,478.0000000000,461.0000000000,159.0000000000,4.0000000000
1717675331850,19.0000000000,97.0000000000,475.0000000000,456.0000000000,159.0000000000,4.0000000000
1717675331851,19.0000000000,97.0000000000,471.0000000000,454.0000000000,158.0000000000,4.0000000000
1717675331851,19.0000000000,96.0000000000,467.0000000000,449.0000000000,157.0000000000,4.0000000000
1717675331851,19.0000000000,96.0000000000,463.0000000000,446.0000000000,156.0000000000,4.0000000000
1717675331851,19.0000000000,95.0000000000,460.0000000000,441.0000000000,155.0000000000,4.0000000000
1717675331851,18.0000000000,95.0000000000,457.0000000000,448.0000000000,155.0000000000,4.0000000000
1717675331852,19.0000000000,94.0000000000,454.0000000000,446.0000000000,153.0000000000,4.0000000000
1717675331852,18.0000000000,94.0000000000,451.0000000000,440.0000000000,152.0000000000,3.0000000000
1717675331852,17.0000000000,92.0000000000,448.0000000000,438.0000000000,152.0000000000,4.0000000000
1717675331852,18.0000000000,92.0000000000,444.0000000000,433.0000000000,151.0000000000,4.0000000000
1717675331852,18.0000000000,92.0000000000,441.0000000000,430.0000000000,150.0000000000,4.0000000000
1717675331852,18.0000000000,92.0000000000,438.0000000000,428.0000000000,149.0000000000,4.0000000000
1717675331853,17.0000000000,91.0000000000,435.0000000000,423.0000000000,148.0000000000,4.0000000000
1717675331869,17.0000000000,89.0000000000,432.0000000000,421.0000000000,147.0000000000,4.0000000000
1717675331872,17.0000000000,90.0000000000,430.0000000000,417.0000000000,147.0000000000,4.0000000000
1717675331873,17.0000000000,89.0000000000,426.0000000000,414.0000000000,146.0000000000,4.0000000000
1717675331873,17.0000000000,88.0000000000,423.0000000000,411.0000000000,145.0000000000,4.0000000000
1717675331874,17.0000000000,88.0000000000,420.0000000000,408.0000000000,143.0000000000,4.0000000000
1717675331875,17.0000000000,88.0000000000,417.0000000000,405.0000000000,143.0000000000,3.0000000000
1717675331876,17.0000000000,88.0000000000,415.0000000000,402.0000000000,143.0000000000,4.0000000000
1717675331876,16.0000000000,87.0000000000,412.0000000000,399.0000000000,142.0000000000,3.0000000000
1717675331877,16.0000000000,87.0000000000,408.0000000000,396.0000000000,141.0000000000,4.0000000000
1717675331878,16.0000000000,86.0000000000,406.0000000000,392.0000000000,140.0000000000,4.0000000000
1717675331878,16.0000000000,85.0000000000,403.0000000000,391.0000000000,140.0000000000,3.0000000000
1717675331879,16.0000000000,84.0000000000,401.0000000000,387.0000000000,139.0000000000,3.0000000000
1717675331880,16.0000000000,84.0000000000,398.0000000000,385.0000000000,137.0000000000,3.0000000000
1717675331880,15.0000000000,83.0000000000,396.0000000000,382.0000000000,137.0000000000,3.0000000000
1717675331881,15.0000000000,83.0000000000,393.0000000000,379.0000000000,135.0000000000,3.0000000000
1717675331882,15.0000000000,83.0000000000,390.0000000000,376.0000000000,135.0000000000,3.0000000000
1717675331884,15.0000000000,82.0000000000,388.0000000000,374.0000000000,135.0000000000,3.0000000000
1717675331885,19.0000000000,81.0000000000,385.0000000000,371.0000000000,135.0000000000,3.0000000000
1717675331886,18.0000000000,103.0000000000,384.0000000000,369.0000000000,134.0000000000,3.0000000000
1717675331886,19.0000000000,110.0000000000,380.0000000000,366.0000000000,132.0000000000,3.0000000000
1717675331887,18.0000000000,110.0000000000,390.0000000000,364.0000000000,131.0000000000,3.0000000000
1717675331930,18.0000000000,108.0000000000,438.0000000000,361.0000000000,131.0000000000,3.0000000000
1717675331931,18.0000000000,108.0000000000,434.0000000000,359.0000000000,131.0000000000,3.0000000000
1717675331931,18.0000000000,107.0000000000,431.0000000000,355.0000000000,129.0000000000,3.0000000000
1717675331932,18.0000000000,106.0000000000,427.0000000000,353.0000000000,129.0000000000,3.0000000000
1717675331932,18.0000000000,105.0000000000,423.0000000000,351.0000000000,127.0000000000,3.0000000000
1717675331932,17.0000000000,105.0000000000,419.0000000000,348.0000000000,127.0000000000,3.0000000000
1717675331932,19.0000000000,103.0000000000,417.0000000000,345.0000000000,127.0000000000,3.0000000000
1717675331933,19.0000000000,103.0000000000,414.0000000000,344.0000000000,126.0000000000,3.0000000000
1717675331933,19.0000000000,103.0000000000,411.0000000000,342.0000000000,125.0000000000,3.0000000000
1717675331933,19.0000000000,102.0000000000,408.0000000000,339.0000000000,125.0000000000,3.0000000000
1717675331933,19.0000000000,102.0000000000,404.0000000000,336.0000000000,124.0000000000,3.0000000000
1717675331933,19.0000000000,101.0000000000,401.0000000000,334.0000000000,124.0000000000,3.0000000000
1717675331933,19.0000000000,100.0000000000,466.0000000000,332.0000000000,123.0000000000,3.0000000000
1717675331934,19.0000000000,99.0000000000,461.0000000000,425.0000000000,122.0000000000,3.0000000000
1717675331934,19.0000000000,99.0000000000,457.0000000000,474.0000000000,121.0000000000,3.0000000000
1717675331934,19.0000000000,99.0000000000,454.0000000000,470.0000000000,120.0000000000,3.0000000000
1717675331934,18.0000000000,97.0000000000,450.0000000000,465.0000000000,120.0000000000,3.0000000000
1717675331934,18.0000000000,97.0000000000,447.0000000000,462.0000000000,120.0000000000,3.0000000000
1717675331935,18.0000000000,96.0000000000,443.0000000000,457.0000000000,119.0000000000,3.0000000000
1717675331935,18.0000000000,96.0000000000,440.0000000000,454.0000000000,119.0000000000,3.0000000000
1717675331935,18.0000000000,95.0000000000,436.0000000000,450.0000000000,118.0000000000,3.0000000000
1717675331935,17.0000000000,95.0000000000,433.0000000000,446.0000000000,117.0000000000,3.0000000000
1717675331936,18.0000000000,94.0000000000,430.0000000000,443.0000000000,116.0000000000,3.0000000000
1717675331936,17.0000000000,94.0000000000,427.0000000000,440.0000000000,115.0000000000,3.0000000000
1717675331936,17.0000000000,93.0000000000,423.0000000000,435.0000000000,115.0000000000,3.0000000000
1717675331936,17.0000000000,92.0000000000,420.0000000000,432.0000000000,115.0000000000,3.0000000000
1717675331936,17.0000000000,92.0000000000,417.0000000000,428.0000000000,113.0000000000,3.0000000000
1717675331990,17.0000000000,92.0000000000,414.0000000000,425.0000000000,113.0000000000,3.0000000000
1717675331991,17.0000000000,92.0000000000,412.0000000000,422.0000000000,113.0000000000,3.0000000000
1717675331991,17.0000000000,90.0000000000,408.0000000000,419.0000000000,112.0000000000,3.0000000000
1717675331991,17.0000000000,89.0000000000,406.0000000000,415.0000000000,111.0000000000,3.0000000000
1717675331991,16.0000000000,89.0000000000,403.0000000000,412.0000000000,111.0000000000,3.0000000000
1717675331992,16.0000000000,88.0000000000,399.0000000000,455.0000000000,110.0000000000,3.0000000000
1717675331992,16.0000000000,88.0000000000,398.0000000000,450.0000000000,110.0000000000,3.0000000000
1717675331992,16.0000000000,88.0000000000,395.0000000000,447.0000000000,109.0000000000,3.0000000000
1717675331992,15.0000000000,88.0000000000,391.0000000000,443.0000000000,109.0000000000,3.0000000000
1717675331993,15.0000000000,87.0000000000,390.0000000000,439.0000000000,108.0000000000,7.0000000000
1717675331993,16.0000000000,86.0000000000,386.0000000000,435.0000000000,108.0000000000,7.0000000000
1717675331993,15.0000000000,86.0000000000,384.0000000000,431.0000000000,107.0000000000,7.0000000000
1717675331994,16.0000000000,85.0000000000,381.0000000000,428.0000000000,107.0000000000,7.0000000000
1717675331994,15.0000000000,84.0000000000,379.0000000000,423.0000000000,106.0000000000,7.0000000000
1717675331994,15.0000000000,83.0000000000,376.0000000000,420.0000000000,105.0000000000,7.0000000000
1717675331995,15.0000000000,83.0000000000,374.0000000000,417.0000000000,105.0000000000,7.0000000000
1717675331995,15.0000000000,103.0000000000,371.0000000000,414.0000000000,103.0000000000,7.0000000000
1717675331995,15.0000000000,103.0000000000,369.0000000000,411.0000000000,103.0000000000,7.0000000000
1717675331995,15.0000000000,103.0000000000,367.0000000000,432.0000000000,103.0000000000,7.0000000000
1717675331996,15.0000000000,102.0000000000,364.0000000000,443.0000000000,103.0000000000,7.0000000000
1717675331997,15.0000000000,101.0000000000,467.0000000000,439.0000000000,102.0000000000,7.0000000000
1717675331997,15.0000000000,100.0000000000,461.0000000000,434.0000000000,102.0000000000,7.0000000000
1717675331997,15.0000000000,99.0000000000,456.0000000000,432.0000000000,100.0000000000,7.0000000000
1717675331997,17.0000000000,99.0000000000,454.0000000000,428.0000000000,100.0000000000,7.0000000000
1717675331998,17.0000000000,99.0000000000,449.0000000000,423.0000000000,99.0000000000,7.0000000000
1717675331998,17.0000000000,97.0000000000,446.0000000000,420.0000000000,99.0000000000,6.0000000000
1717675331998,17.0000000000,153.0000000000,444.0000000000,417.0000000000,99.0000000000,6.0000000000
1717675331999,17.0000000000,185.0000000000,439.0000000000,414.0000000000,98.0000000000,7.0000000000
1717675331999,17.0000000000,184.0000000000,435.0000000000,411.0000000000,98.0000000000,7.0000000000
1717675331999,17.0000000000,182.0000000000,432.0000000000,408.0000000000,97.0000000000,7.0000000000
1717675331999,16.0000000000,180.0000000000,430.0000000000,404.0000000000,97.0000000000,6.0000000000
1717675332000,15.0000000000,179.0000000000,425.0000000000,401.0000000000,96.0000000000,6.0000000000
1717675332000,15.0000000000,178.0000000000,423.0000000000,398.0000000000,96.0000000000,6.0000000000
1717675332000,15.0000000000,177.0000000000,419.0000000000,395.0000000000,95.0000000000,7.0000000000
1717675332045,15.0000000000,176.0000000000,417.0000000000,417.0000000000,95.0000000000,7.0000000000
1717675332047,15.0000000000,175.0000000000,414.0000000000,412.0000000000,94.0000000000,6.0000000000
1717675332047,16.0000000000,174.0000000000,411.0000000000,409.0000000000,94.0000000000,6.0000000000
1717675332047,16.0000000000,172.0000000000,408.0000000000,406.0000000000,94.0000000000,6.0000000000
1717675332047,15.0000000000,171.0000000000,405.0000000000,403.0000000000,145.0000000000,6.0000000000
1717675332047,15.0000000000,171.0000000000,401.0000000000,399.0000000000,143.0000000000,6.0000000000
1717675332047,15.0000000000,169.0000000000,399.0000000000,396.0000000000,143.0000000000,6.0000000000
1717675332048,15.0000000000,167.0000000000,396.0000000000,391.0000000000,142.0000000000,6.0000000000
1717675332048,15.0000000000,167.0000000000,393.0000000000,390.0000000000,141.0000000000,6.0000000000
1717675332048,15.0000000000,166.0000000000,390.0000000000,387.0000000000,140.0000000000,6.0000000000
1717675332048,15.0000000000,165.0000000000,387.0000000000,384.0000000000,139.0000000000,6.0000000000
1717675332048,15.0000000000,163.0000000000,385.0000000000,380.0000000000,138.0000000000,5.0000000000
1717675332048,15.0000000000,163.0000000000,382.0000000000,377.0000000000,136.0000000000,6.0000000000
1717675332048,14.0000000000,162.0000000000,379.0000000000,376.0000000000,135.0000000000,5.0000000000
1717675332049,15.0000000000,161.0000000000,376.0000000000,372.0000000000,135.0000000000,5.0000000000
1717675332049,14.0000000000,159.0000000000,432.0000000000,369.0000000000,136.0000000000,5.0000000000
1717675332049,14.0000000000,159.0000000000,470.0000000000,367.0000000000,135.0000000000,6.0000000000
1717675332049,14.0000000000,158.0000000000,465.0000000000,364.0000000000,135.0000000000,5.0000000000
1717675332049,14.0000000000,157.0000000000,462.0000000000,362.0000000000,134.0000000000,5.0000000000
1717675332049,14.0000000000,156.0000000000,458.0000000000,359.0000000000,133.0000000000,5.0000000000
1717675332049,14.0000000000,155.0000000000,454.0000000000,356.0000000000,132.0000000000,4.0000000000
1717675332049,14.0000000000,154.0000000000,450.0000000000,354.0000000000,131.0000000000,4.0000000000
1717675332049,14.0000000000,152.0000000000,446.0000000000,352.0000000000,131.0000000000,5.0000000000
1717675332049,14.0000000000,152.0000000000,443.0000000000,349.0000000000,129.0000000000,5.0000000000
1717675332050,14.0000000000,152.0000000000,440.0000000000,347.0000000000,129.0000000000,5.0000000000
1717675332050,14.0000000000,150.0000000000,435.0000000000,344.0000000000,127.0000000000,5.0000000000
1717675332066,14.0000000000,149.0000000000,432.0000000000,342.0000000000,127.0000000000,4.0000000000
1717675332068,13.0000000000,148.0000000000,505.0000000000,402.0000000000,142.0000000000,4.0000000000
1717675332069,13.0000000000,147.0000000000,524.0000000000,427.0000000000,140.0000000000,4.0000000000
1717675332069,13.0000000000,147.0000000000,519.0000000000,423.0000000000,140.0000000000,4.0000000000
1717675332069,13.0000000000,145.0000000000,513.0000000000,419.0000000000,139.0000000000,4.0000000000
1717675332070,12.0000000000,145.0000000000,510.0000000000,415.0000000000,138.0000000000,5.0000000000
1717675332070,13.0000000000,143.0000000000,504.0000000000,412.0000000000,137.0000000000,4.0000000000
1717675332071,13.0000000000,143.0000000000,499.0000000000,409.0000000000,135.0000000000,4.0000000000
1717675332071,13.0000000000,143.0000000000,572.0000000000,406.0000000000,135.0000000000,4.0000000000
1717675332072,12.0000000000,141.0000000000,595.0000000000,401.0000000000,134.0000000000,4.0000000000
1717675332073,12.0000000000,140.0000000000,590.0000000000,399.0000000000,133.0000000000,4.0000000000
1717675332073,12.0000000000,140.0000000000,631.0000000000,395.0000000000,132.0000000000,4.0000000000
1717675332074,12.0000000000,139.0000000000,623.0000000000,391.0000000000,131.0000000000,4.0000000000
1717675332123,12.0000000000,138.0000000000,616.0000000000,389.0000000000,131.0000000000,4.0000000000
1717675332125,12.0000000000,137.0000000000,611.0000000000,385.0000000000,130.0000000000,4.0000000000
1717675332126,12.0000000000,135.0000000000,605.0000000000,382.0000000000,129.0000000000,4.0000000000
1717675332126,12.0000000000,135.0000000000,599.0000000000,380.0000000000,128.0000000000,4.0000000000
1717675332127,13.0000000000,135.0000000000,593.0000000000,376.0000000000,127.0000000000,4.0000000000
1717675332127,13.0000000000,134.0000000000,588.0000000000,374.0000000000,127.0000000000,4.0000000000
1717675332128,13.0000000000,133.0000000000,583.0000000000,371.0000000000,126.0000000000,3.0000000000
1717675332128,13.0000000000,132.0000000000,577.0000000000,368.0000000000,125.0000000000,3.0000000000
1717675332128,13.0000000000,132.0000000000,572.0000000000,366.0000000000,124.0000000000,3.0000000000
1717675332129,12.0000000000,131.0000000000,568.0000000000,363.0000000000,124.0000000000,3.0000000000
1717675332129,12.0000000000,213.0000000000,562.0000000000,359.0000000000,123.0000000000,3.0000000000
1717675332130,12.0000000000,209.0000000000,557.0000000000,358.0000000000,121.0000000000,3.0000000000
1717675332130,12.0000000000,207.0000000000,551.0000000000,355.0000000000,121.0000000000,3.0000000000
1717675332130,12.0000000000,206.0000000000,547.0000000000,352.0000000000,120.0000000000,3.0000000000
1717675332131,12.0000000000,204.0000000000,543.0000000000,349.0000000000,120.0000000000,3.0000000000
1717675332131,12.0000000000,203.0000000000,538.0000000000,348.0000000000,120.0000000000,3.0000000000
1717675332131,12.0000000000,201.0000000000,533.0000000000,344.0000000000,118.0000000000,3.0000000000
1717675332131,12.0000000000,199.0000000000,530.0000000000,342.0000000000,118.0000000000,3.0000000000
1717675332131,12.0000000000,199.0000000000,526.0000000000,339.0000000000,117.0000000000,3.0000000000
1717675332131,12.0000000000,198.0000000000,520.0000000000,337.0000000000,118.0000000000,3.0000000000
1717675332131,12.0000000000,196.0000000000,516.0000000000,335.0000000000,116.0000000000,3.0000000000
1717675332132,12.0000000000,195.0000000000,513.0000000000,332.0000000000,116.0000000000,3.0000000000
1717675332132,12.0000000000,193.0000000000,508.0000000000,331.0000000000,115.0000000000,3.0000000000
1717675332132,12.0000000000,192.0000000000,504.0000000000,328.0000000000,115.0000000000,3.0000000000
1717675332132,12.0000000000,191.0000000000,499.0000000000,377.0000000000,114.0000000000,3.0000000000
1717675332132,11.0000000000,190.0000000000,496.0000000000,374.0000000000,113.0000000000,3.0000000000
1717675332132,11.0000000000,188.0000000000,492.0000000000,371.0000000000,113.0000000000,3.0000000000
1717675332133,11.0000000000,188.0000000000,488.0000000000,368.0000000000,112.0000000000,9.0000000000
1717675332133,12.0000000000,186.0000000000,484.0000000000,365.0000000000,112.0000000000,9.0000000000
1717675332133,11.0000000000,185.0000000000,480.0000000000,362.0000000000,111.0000000000,9.0000000000
1717675332133,11.0000000000,184.0000000000,478.0000000000,359.0000000000,110.0000000000,9.0000000000
1717675332133,11.0000000000,183.0000000000,473.0000000000,355.0000000000,109.0000000000,9.0000000000
1717675332133,11.0000000000,182.0000000000,471.0000000000,354.0000000000,136.0000000000,9.0000000000
1717675332148,11.0000000000,180.0000000000,467.0000000000,351.0000000000,137.0000000000,8.0000000000
1717675332149,11.0000000000,179.0000000000,463.0000000000,348.0000000000,135.0000000000,9.0000000000
1717675332149,11.0000000000,178.0000000000,460.0000000000,345.0000000000,135.0000000000,9.0000000000
1717675332149,11.0000000000,177.0000000000,455.0000000000,343.0000000000,134.0000000000,8.0000000000
1717675332149,10.0000000000,176.0000000000,453.0000000000,340.0000000000,133.0000000000,9.0000000000
1717675332150,11.0000000000,175.0000000000,450.0000000000,337.0000000000,132.0000000000,8.0000000000
1717675332150,11.0000000000,174.0000000000,448.0000000000,335.0000000000,131.0000000000,7.0000000000
1717675332150,10.0000000000,172.0000000000,444.0000000000,333.0000000000,131.0000000000,7.0000000000
1717675332150,10.0000000000,172.0000000000,440.0000000000,331.0000000000,129.0000000000,7.0000000000
1717675332167,10.0000000000,171.0000000000,438.0000000000,399.0000000000,129.0000000000,8.0000000000
1717675332168,10.0000000000,169.0000000000,435.0000000000,395.0000000000,128.0000000000,7.0000000000
1717675332168,10.0000000000,168.0000000000,431.0000000000,391.0000000000,127.0000000000,7.0000000000
1717675332168,10.0000000000,167.0000000000,484.0000000000,388.0000000000,127.0000000000,7.0000000000
1717675332168,9.0000000000,167.0000000000,481.0000000000,384.0000000000,126.0000000000,7.0000000000
1717675332168,10.0000000000,166.0000000000,476.0000000000,382.0000000000,125.0000000000,7.0000000000
1717675332168,12.0000000000,164.0000000000,472.0000000000,379.0000000000,124.0000000000,7.0000000000
1717675332169,12.0000000000,163.0000000000,467.0000000000,376.0000000000,124.0000000000,7.0000000000
1717675332169,12.0000000000,163.0000000000,465.0000000000,372.0000000000,123.0000000000,7.0000000000
1717675332184,12.0000000000,161.0000000000,460.0000000000,369.0000000000,122.0000000000,7.0000000000
1717675332187,12.0000000000,161.0000000000,456.0000000000,368.0000000000,121.0000000000,7.0000000000
1717675332188,12.0000000000,159.0000000000,452.0000000000,364.0000000000,120.0000000000,7.0000000000
1717675332189,12.0000000000,159.0000000000,450.0000000000,415.0000000000,143.0000000000,7.0000000000
1717675332190,12.0000000000,158.0000000000,446.0000000000,412.0000000000,142.0000000000,7.0000000000
1717675332190,12.0000000000,156.0000000000,441.0000000000,409.0000000000,142.0000000000,7.0000000000
1717675332190,12.0000000000,156.0000000000,439.0000000000,406.0000000000,140.0000000000,7.0000000000
1717675332191,12.0000000000,155.0000000000,435.0000000000,401.0000000000,140.0000000000,7.0000000000
1717675332192,12.0000000000,163.0000000000,432.0000000000,398.0000000000,139.0000000000,7.0000000000
1717675332192,11.0000000000,162.0000000000,429.0000000000,396.0000000000,137.0000000000,7.0000000000
1717675332193,11.0000000000,161.0000000000,425.0000000000,391.0000000000,136.0000000000,7.0000000000
1717675332194,11.0000000000,159.0000000000,423.0000000000,388.0000000000,135.0000000000,7.0000000000
1717675332194,11.0000000000,159.0000000000,420.0000000000,385.0000000000,135.0000000000,7.0000000000
1717675332195,11.0000000000,158.0000000000,416.0000000000,383.0000000000,135.0000000000,7.0000000000
1717675332195,11.0000000000,157.0000000000,414.0000000000,380.0000000000,134.0000000000,7.0000000000
1717675332227,11.0000000000,156.0000000000,412.0000000000,376.0000000000,132.0000000000,7.0000000000
1717675332228,11.0000000000,155.0000000000,408.0000000000,373.0000000000,131.0000000000,7.0000000000
1717675332228,11.0000000000,153.0000000000,406.0000000000,371.0000000000,131.0000000000,7.0000000000
1717675332229,10.0000000000,153.0000000000,403.0000000000,368.0000000000,130.0000000000,7.0000000000
1717675332229,11.0000000000,152.0000000000,399.0000000000,364.0000000000,129.0000000000,7.0000000000
1717675332230,10.0000000000,151.0000000000,398.0000000000,361.0000000000,127.0000000000,7.0000000000
1717675332230,11.0000000000,150.0000000000,395.0000000000,359.0000000000,127.0000000000,6.0000000000
1717675332230,10.0000000000,150.0000000000,391.0000000000,357.0000000000,127.0000000000,7.0000000000
1717675332231,10.0000000000,148.0000000000,390.0000000000,353.0000000000,126.0000000000,6.0000000000
1717675332231,10.0000000000,147.0000000000,387.0000000000,351.0000000000,126.0000000000,6.0000000000
1717675332231,9.0000000000,147.0000000000,384.0000000000,349.0000000000,124.0000000000,6.0000000000
1717675332231,11.0000000000,146.0000000000,384.0000000000,346.0000000000,124.0000000000,7.0000000000
1717675332232,9.0000000000,145.0000000000,382.0000000000,344.0000000000,123.0000000000,6.0000000000
1717675332232,10.0000000000,143.0000000000,379.0000000000,342.0000000000,123.0000000000,6.0000000000
1717675332232,9.0000000000,143.0000000000,423.0000000000,339.0000000000,121.0000000000,6.0000000000
1717675332233,9.0000000000,143.0000000000,422.0000000000,336.0000000000,140.0000000000,6.0000000000
1717675332233,9.0000000000,142.0000000000,417.0000000000,335.0000000000,139.0000000000,6.0000000000
1717675332233,9.0000000000,141.0000000000,415.0000000000,332.0000000000,139.0000000000,6.0000000000
1717675332234,9.0000000000,140.0000000000,411.0000000000,330.0000000000,137.0000000000,6.0000000000
1717675332234,9.0000000000,139.0000000000,408.0000000000,327.0000000000,135.0000000000,6.0000000000
1717675332265,9.0000000000,139.0000000000,404.0000000000,384.0000000000,135.0000000000,6.0000000000
1717675332265,9.0000000000,137.0000000000,401.0000000000,382.0000000000,135.0000000000,6.0000000000
1717675332266,9.0000000000,137.0000000000,399.0000000000,377.0000000000,134.0000000000,6.0000000000
1717675332266,9.0000000000,135.0000000000,396.0000000000,376.0000000000,133.0000000000,6.0000000000
1717675332266,9.0000000000,135.0000000000,393.0000000000,372.0000000000,132.0000000000,6.0000000000
1717675332266,9.0000000000,135.0000000000,390.0000000000,369.0000000000,131.0000000000,6.0000000000
1717675332266,12.0000000000,135.0000000000,481.0000000000,366.0000000000,131.0000000000,5.0000000000
1717675332266,11.0000000000,133.0000000000,476.0000000000,364.0000000000,129.0000000000,6.0000000000
1717675332266,11.0000000000,132.0000000000,472.0000000000,359.0000000000,129.0000000000,6.0000000000
1717675332267,11.0000000000,131.0000000000,467.0000000000,357.0000000000,127.0000000000,6.0000000000
1717675332267,11.0000000000,131.0000000000,463.0000000000,355.0000000000,127.0000000000,6.0000000000
1717675332267,11.0000000000,131.0000000000,460.0000000000,352.0000000000,126.0000000000,5.0000000000
1717675332267,11.0000000000,129.0000000000,455.0000000000,349.0000000000,126.0000000000,6.0000000000
1717675332267,11.0000000000,129.0000000000,452.0000000000,347.0000000000,125.0000000000,5.0000000000
1717675332267,11.0000000000,127.0000000000,448.0000000000,344.0000000000,124.0000000000,4.0000000000
1717675332267,11.0000000000,127.0000000000,444.0000000000,342.0000000000,123.0000000000,5.0000000000
1717675332267,10.0000000000,127.0000000000,441.0000000000,339.0000000000,123.0000000000,4.0000000000
1717675332268,9.0000000000,126.0000000000,438.0000000000,337.0000000000,121.0000000000,5.0000000000
1717675332269,10.0000000000,126.0000000000,434.0000000000,334.0000000000,121.0000000000,4.0000000000
1717675332269,9.0000000000,124.0000000000,432.0000000000,332.0000000000,120.0000000000,5.0000000000
1717675332289,9.0000000000,135.0000000000,428.0000000000,329.0000000000,120.0000000000,5.0000000000
1717675332290,9.0000000000,135.0000000000,424.0000000000,327.0000000000,119.0000000000,5.0000000000
1717675332290,9.0000000000,134.0000000000,422.0000000000,325.0000000000,119.0000000000,4.0000000000
1717675332291,9.0000000000,133.0000000000,419.0000000000,323.0000000000,118.0000000000,4.0000000000
1717675332291,9.0000000000,132.0000000000,415.0000000000,321.0000000000,118.0000000000,4.0000000000
1717675332291,9.0000000000,131.0000000000,412.0000000000,319.0000000000,116.0000000000,4.0000000000
1717675332292,9.0000000000,131.0000000000,411.0000000000,318.0000000000,115.0000000000,4.0000000000
1717675332292,9.0000000000,129.0000000000,408.0000000000,315.0000000000,115.0000000000,4.0000000000
1717675332292,9.0000000000,129.0000000000,403.0000000000,313.0000000000,114.0000000000,4.0000000000
1717675332293,9.0000000000,128.0000000000,401.0000000000,312.0000000000,113.0000000000,4.0000000000
1717675332293,9.0000000000,127.0000000000,399.0000000000,310.0000000000,113.0000000000,4.0000000000
1717675332293,9.0000000000,127.0000000000,480.0000000000,308.0000000000,112.0000000000,4.0000000000
1717675332294,8.0000000000,126.0000000000,475.0000000000,307.0000000000,112.0000000000,4.0000000000
1717675332294,8.0000000000,125.0000000000,471.0000000000,304.0000000000,111.0000000000,4.0000000000
1717675332328,9.0000000000,124.0000000000,467.0000000000,303.0000000000,111.0000000000,3.0000000000
1717675332328,7.0000000000,124.0000000000,462.0000000000,301.0000000000,110.0000000000,3.0000000000
1717675332328,8.0000000000,123.0000000000,460.0000000000,299.0000000000,110.0000000000,4.0000000000
1717675332329,9.0000000000,123.0000000000,455.0000000000,297.0000000000,109.0000000000,4.0000000000
1717675332329,7.0000000000,121.0000000000,451.0000000000,295.0000000000,108.0000000000,4.0000000000
1717675332329,8.0000000000,121.0000000000,448.0000000000,294.0000000000,107.0000000000,4.0000000000
1717675332329,9.0000000000,120.0000000000,444.0000000000,292.0000000000,107.0000000000,4.0000000000
1717675332329,7.0000000000,120.0000000000,441.0000000000,291.0000000000,106.0000000000,4.0000000000
1717675332330,8.0000000000,120.0000000000,438.0000000000,289.0000000000,107.0000000000,4.0000000000
1717675332330,8.0000000000,119.0000000000,435.0000000000,287.0000000000,107.0000000000,4.0000000000
1717675332330,8.0000000000,118.0000000000,432.0000000000,286.0000000000,112.0000000000,4.0000000000
1717675332331,7.0000000000,118.0000000000,428.0000000000,285.0000000000,111.0000000000,4.0000000000
1717675332331,7.0000000000,116.0000000000,425.0000000000,283.0000000000,110.0000000000,4.0000000000
1717675332331,7.0000000000,116.0000000000,422.0000000000,281.0000000000,110.0000000000,4.0000000000
1717675332331,7.0000000000,115.0000000000,489.0000000000,280.0000000000,109.0000000000,5.0000000000
1717675332332,27.0000000000,115.0000000000,494.0000000000,323.0000000000,108.0000000000,4.0000000000
1717675332332,27.0000000000,114.0000000000,489.0000000000,319.0000000000,108.0000000000,4.0000000000
1717675332332,26.0000000000,113.0000000000,484.0000000000,318.0000000000,107.0000000000,4.0000000000
1717675332333,26.0000000000,112.0000000000,481.0000000000,315.0000000000,106.0000000000,4.0000000000
1717675332333,26.0000000000,131.0000000000,478.0000000000,312.0000000000,105.0000000000,4.0000000000
1717675332357,25.0000000000,135.0000000000,472.0000000000,310.0000000000,105.0000000000,4.0000000000
1717675332358,25.0000000000,135.0000000000,468.0000000000,308.0000000000,103.0000000000,4.0000000000
1717675332358,25.0000000000,134.0000000000,465.0000000000,305.0000000000,103.0000000000,4.0000000000
1717675332358,25.0000000000,132.0000000000,462.0000000000,303.0000000000,103.0000000000,3.0000000000
1717675332358,24.0000000000,132.0000000000,457.0000000000,301.0000000000,103.0000000000,4.0000000000
1717675332359,24.0000000000,163.0000000000,454.0000000000,299.0000000000,102.0000000000,4.0000000000
1717675332359,24.0000000000,169.0000000000,451.0000000000,296.0000000000,102.0000000000,4.0000000000
1717675332359,24.0000000000,167.0000000000,447.0000000000,295.0000000000,101.0000000000,4.0000000000
1717675332359,24.0000000000,167.0000000000,444.0000000000,292.0000000000,100.0000000000,3.0000000000
1717675332360,24.0000000000,166.0000000000,440.0000000000,290.0000000000,99.0000000000,4.0000000000
1717675332360,24.0000000000,164.0000000000,437.0000000000,288.0000000000,99.0000000000,4.0000000000
1717675332360,24.0000000000,164.0000000000,433.0000000000,286.0000000000,99.0000000000,4.0000000000
1717675332361,24.0000000000,163.0000000000,430.0000000000,376.0000000000,166.0000000000,4.0000000000
1717675332361,23.0000000000,161.0000000000,427.0000000000,370.0000000000,163.0000000000,4.0000000000
1717675332361,23.0000000000,160.0000000000,423.0000000000,367.0000000000,162.0000000000,4.0000000000
