timestamp,Channel 1,Channel 2,Channel 3,Channel 4,Channel 5,Channel 6
1717675287359,4.0000000000,0.0000000000,0.0000000000,33.0000000000,15.0000000000,1.0000000000
1717675287361,5.0000000000,0.0000000000,0.0000000000,33.0000000000,15.0000000000,1.0000000000
1717675287361,4.0000000000,0.0000000000,0.0000000000,33.0000000000,15.0000000000,1.0000000000
1717675287361,4.0000000000,0.0000000000,0.0000000000,33.0000000000,15.0000000000,1.0000000000
1717675287362,4.0000000000,0.0000000000,0.0000000000,33.0000000000,15.0000000000,1.0000000000
1717675287362,4.0000000000,0.0000000000,0.0000000000,32.0000000000,14.0000000000,1.0000000000
1717675287362,4.0000000000,0.0000000000,0.0000000000,32.0000000000,14.0000000000,0.0000000000
1717675287362,4.0000000000,0.0000000000,0.0000000000,32.0000000000,14.0000000000,1.0000000000
1717675287362,4.0000000000,0.0000000000,0.0000000000,32.0000000000,14.0000000000,1.0000000000
1717675287362,4.0000000000,0.0000000000,0.0000000000,31.0000000000,14.0000000000,1.0000000000
1717675287362,4.0000000000,0.0000000000,0.0000000000,32.0000000000,14.0000000000,1.0000000000
1717675287363,4.0000000000,0.0000000000,0.0000000000,31.0000000000,14.0000000000,1.0000000000
1717675287363,4.0000000000,0.0000000000,0.0000000000,31.0000000000,14.0000000000,1.0000000000
1717675287363,4.0000000000,0.0000000000,0.0000000000,31.0000000000,14.0000000000,1.0000000000
1717675287363,4.0000000000,0.0000000000,0.0000000000,31.0000000000,14.0000000000,1.0000000000
1717675287363,4.0000000000,0.0000000000,0.0000000000,31.0000000000,14.0000000000,1.0000000000
1717675287376,4.0000000000,0.0000000000,0.0000000000,31.0000000000,14.0000000000,1.0000000000
1717675287376,4.0000000000,0.0000000000,0.0000000000,31.0000000000,14.0000000000,1.0000000000
1717675287377,4.0000000000,0.0000000000,0.0000000000,31.0000000000,14.0000000000,1.0000000000
1717675287377,4.0000000000,0.0000000000,0.0000000000,31.0000000000,14.0000000000,1.0000000000
1717675287377,3.0000000000,0.0000000000,0.0000000000,31.0000000000,14.0000000000,1.0000000000
1717675287377,4.0000000000,0.0000000000,0.0000000000,30.0000000000,14.0000000000,1.0000000000
1717675287377,4.0000000000,0.0000000000,0.0000000000,31.0000000000,14.0000000000,1.0000000000
1717675287377,3.0000000000,0.0000000000,0.0000000000,31.0000000000,14.0000000000,1.0000000000
1717675287378,3.0000000000,0.0000000000,0.0000000000,30.0000000000,14.0000000000,1.0000000000
1717675287378,3.0000000000,0.0000000000,0.0000000000,30.0000000000,14.0000000000,1.0000000000
1717675287379,4.0000000000,0.0000000000,0.0000000000,30.0000000000,14.0000000000,1.0000000000
1717675287379,4.0000000000,0.0000000000,0.0000000000,30.0000000000,14.0000000000,1.0000000000
1717675287380,4.0000000000,0.0000000000,0.0000000000,30.0000000000,13.0000000000,1.0000000000
1717675287401,4.0000000000,0.0000000000,0.0000000000,29.0000000000,14.0000000000,1.0000000000
1717675287402,4.0000000000,0.0000000000,0.0000000000,29.0000000000,13.0000000000,1.0000000000
1717675287403,4.0000000000,0.0000000000,0.0000000000,29.0000000000,13.0000000000,1.0000000000
1717675287403,4.0000000000,0.0000000000,0.0000000000,29.0000000000,13.0000000000,1.0000000000
1717675287403,4.0000000000,0.0000000000,0.0000000000,29.0000000000,13.0000000000,1.0000000000
1717675287404,4.0000000000,0.0000000000,0.0000000000,29.0000000000,13.0000000000,1.0000000000
1717675287404,4.0000000000,0.0000000000,0.0000000000,29.0000000000,12.0000000000,1.0000000000
1717675287404,3.0000000000,0.0000000000,0.0000000000,28.0000000000,13.0000000000,1.0000000000
1717675287404,4.0000000000,0.0000000000,0.0000000000,28.0000000000,13.0000000000,1.0000000000
1717675287405,4.0000000000,0.0000000000,0.0000000000,28.0000000000,13.0000000000,1.0000000000
1717675287405,4.0000000000,0.0000000000,0.0000000000,28.0000000000,12.0000000000,1.0000000000
1717675287405,3.0000000000,0.0000000000,0.0000000000,28.0000000000,13.0000000000,1.0000000000
1717675287405,4.0000000000,0.0000000000,0.0000000000,28.0000000000,12.0000000000,1.0000000000
1717675287406,3.0000000000,0.0000000000,0.0000000000,28.0000000000,12.0000000000,1.0000000000
1717675287406,4.0000000000,0.0000000000,0.0000000000,28.0000000000,12.0000000000,1.0000000000
1717675287406,4.0000000000,0.0000000000,0.0000000000,28.0000000000,12.0000000000,1.0000000000
1717675287407,4.0000000000,0.0000000000,0.0000000000,27.0000000000,12.0000000000,1.0000000000
1717675287407,3.0000000000,0.0000000000,0.0000000000,28.0000000000,12.0000000000,1.0000000000
1717675287408,4.0000000000,0.0000000000,0.0000000000,28.0000000000,12.0000000000,1.0000000000
1717675287408,3.0000000000,0.0000000000,0.0000000000,27.0000000000,12.0000000000,1.0000000000
1717675287408,3.0000000000,0.0000000000,0.0000000000,27.0000000000,12.0000000000,1.0000000000
1717675287408,4.0000000000,0.0000000000,0.0000000000,27.0000000000,12.0000000000,1.0000000000
1717675287408,3.0000000000,0.0000000000,0.0000000000,27.0000000000,12.0000000000,0.0000000000
1717675287447,3.0000000000,0.0000000000,0.0000000000,27.0000000000,12.0000000000,1.0000000000
1717675287448,4.0000000000,0.0000000000,0.0000000000,27.0000000000,12.0000000000,1.0000000000
1717675287448,3.0000000000,0.0000000000,0.0000000000,27.0000000000,12.0000000000,1.0000000000
1717675287448,4.0000000000,0.0000000000,0.0000000000,27.0000000000,12.0000000000,1.0000000000
1717675287448,4.0000000000,0.0000000000,0.0000000000,26.0000000000,12.0000000000,1.0000000000
1717675287449,3.0000000000,0.0000000000,0.0000000000,27.0000000000,12.0000000000,0.0000000000
1717675287449,3.0000000000,0.0000000000,0.0000000000,26.0000000000,12.0000000000,0.0000000000
1717675287449,4.0000000000,0.0000000000,0.0000000000,25.0000000000,12.0000000000,1.0000000000
1717675287449,4.0000000000,0.0000000000,0.0000000000,26.0000000000,12.0000000000,1.0000000000
1717675287449,3.0000000000,0.0000000000,0.0000000000,25.0000000000,11.0000000000,1.0000000000
1717675287449,3.0000000000,0.0000000000,0.0000000000,26.0000000000,12.0000000000,0.0000000000
1717675287449,3.0000000000,0.0000000000,0.0000000000,25.0000000000,12.0000000000,0.0000000000
1717675287450,3.0000000000,0.0000000000,0.0000000000,25.0000000000,12.0000000000,0.0000000000
1717675287450,3.0000000000,0.0000000000,0.0000000000,25.0000000000,12.0000000000,1.0000000000
1717675287450,3.0000000000,0.0000000000,0.0000000000,25.0000000000,12.0000000000,0.0000000000
1717675287450,3.0000000000,0.0000000000,0.0000000000,25.0000000000,12.0000000000,1.0000000000
1717675287450,3.0000000000,0.0000000000,0.0000000000,24.0000000000,12.0000000000,0.0000000000
1717675287450,3.0000000000,0.0000000000,0.0000000000,25.0000000000,12.0000000000,0.0000000000
1717675287450,3.0000000000,0.0000000000,0.0000000000,25.0000000000,12.0000000000,0.0000000000
1717675287451,3.0000000000,0.0000000000,0.0000000000,24.0000000000,12.0000000000,0.0000000000
1717675287451,3.0000000000,0.0000000000,0.0000000000,24.0000000000,12.0000000000,1.0000000000
1717675287451,3.0000000000,0.0000000000,0.0000000000,24.0000000000,12.0000000000,0.0000000000
1717675287451,3.0000000000,0.0000000000,0.0000000000,24.0000000000,12.0000000000,0.0000000000
1717675287451,3.0000000000,0.0000000000,0.0000000000,51.0000000000,12.0000000000,0.0000000000
1717675287451,3.0000000000,0.0000000000,0.0000000000,51.0000000000,12.0000000000,0.0000000000
1717675287452,3.0000000000,0.0000000000,0.0000000000,51.0000000000,11.0000000000,0.0000000000
1717675287452,3.0000000000,0.0000000000,0.0000000000,50.0000000000,12.0000000000,0.0000000000
1717675287452,3.0000000000,0.0000000000,0.0000000000,49.0000000000,12.0000000000,0.0000000000
1717675287452,3.0000000000,0.0000000000,0.0000000000,49.0000000000,12.0000000000,0.0000000000
1717675287452,3.0000000000,0.0000000000,0.0000000000,49.0000000000,11.0000000000,0.0000000000
1717675287452,3.0000000000,0.0000000000,0.0000000000,48.0000000000,12.0000000000,0.0000000000
1717675287452,3.0000000000,0.0000000000,0.0000000000,49.0000000000,11.0000000000,0.0000000000
1717675287453,3.0000000000,0.0000000000,0.0000000000,48.0000000000,12.0000000000,0.0000000000
1717675287453,3.0000000000,0.0000000000,0.0000000000,48.0000000000,11.0000000000,0.0000000000
1717675287453,3.0000000000,0.0000000000,0.0000000000,48.0000000000,11.0000000000,0.0000000000
1717675287468,3.0000000000,0.0000000000,0.0000000000,48.0000000000,11.0000000000,0.0000000000
1717675287469,3.0000000000,0.0000000000,0.0000000000,48.0000000000,11.0000000000,0.0000000000
1717675287469,3.0000000000,0.0000000000,0.0000000000,47.0000000000,11.0000000000,0.0000000000
1717675287469,3.0000000000,0.0000000000,0.0000000000,48.0000000000,11.0000000000,0.0000000000
1717675287469,3.0000000000,0.0000000000,0.0000000000,47.0000000000,11.0000000000,0.0000000000
1717675287470,3.0000000000,0.0000000000,0.0000000000,47.0000000000,11.0000000000,0.0000000000
1717675287470,3.0000000000,0.0000000000,0.0000000000,47.0000000000,10.0000000000,0.0000000000
1717675287470,3.0000000000,0.0000000000,0.0000000000,46.0000000000,10.0000000000,0.0000000000
1717675287470,3.0000000000,0.0000000000,0.0000000000,46.0000000000,11.0000000000,0.0000000000
1717675287470,3.0000000000,0.0000000000,0.0000000000,46.0000000000,10.0000000000,0.0000000000
1717675287470,3.0000000000,0.0000000000,0.0000000000,46.0000000000,11.0000000000,0.0000000000
1717675287470,3.0000000000,0.0000000000,0.0000000000,46.0000000000,9.0000000000,0.0000000000
1717675287470,3.0000000000,0.0000000000,0.0000000000,45.0000000000,10.0000000000,0.0000000000
1717675287483,3.0000000000,0.0000000000,0.0000000000,45.0000000000,10.0000000000,0.0000000000
1717675287484,3.0000000000,0.0000000000,0.0000000000,45.0000000000,10.0000000000,0.0000000000
1717675287484,3.0000000000,0.0000000000,0.0000000000,44.0000000000,10.0000000000,1.0000000000
1717675287484,3.0000000000,0.0000000000,0.0000000000,44.0000000000,10.0000000000,6.0000000000
1717675287484,3.0000000000,0.0000000000,0.0000000000,44.0000000000,9.0000000000,6.0000000000
1717675287484,3.0000000000,0.0000000000,0.0000000000,44.0000000000,9.0000000000,6.0000000000
1717675287484,3.0000000000,0.0000000000,0.0000000000,44.0000000000,10.0000000000,6.0000000000
1717675287484,3.0000000000,0.0000000000,0.0000000000,44.0000000000,9.0000000000,6.0000000000
1717675287484,3.0000000000,0.0000000000,0.0000000000,43.0000000000,9.0000000000,6.0000000000
1717675287484,3.0000000000,0.0000000000,0.0000000000,44.0000000000,10.0000000000,6.0000000000
1717675287485,3.0000000000,0.0000000000,0.0000000000,44.0000000000,9.0000000000,5.0000000000
1717675287485,3.0000000000,0.0000000000,0.0000000000,43.0000000000,10.0000000000,5.0000000000
1717675287485,3.0000000000,0.0000000000,0.0000000000,43.0000000000,9.0000000000,6.0000000000
1717675287497,3.0000000000,0.0000000000,0.0000000000,43.0000000000,9.0000000000,5.0000000000
1717675287498,3.0000000000,0.0000000000,0.0000000000,43.0000000000,10.0000000000,6.0000000000
1717675287498,3.0000000000,0.0000000000,0.0000000000,42.0000000000,9.0000000000,6.0000000000
1717675287498,3.0000000000,0.0000000000,0.0000000000,41.0000000000,9.0000000000,4.0000000000
1717675287498,3.0000000000,0.0000000000,0.0000000000,42.0000000000,10.0000000000,5.0000000000
1717675287498,3.0000000000,0.0000000000,0.0000000000,41.0000000000,9.0000000000,5.0000000000
1717675287498,3.0000000000,0.0000000000,0.0000000000,41.0000000000,9.0000000000,5.0000000000
1717675287498,3.0000000000,0.0000000000,0.0000000000,41.0000000000,9.0000000000,6.0000000000
1717675287498,3.0000000000,0.0000000000,0.0000000000,41.0000000000,9.0000000000,5.0000000000
1717675287499,4.0000000000,0.0000000000,0.0000000000,41.0000000000,9.0000000000,5.0000000000
1717675287512,3.0000000000,0.0000000000,0.0000000000,40.0000000000,9.0000000000,5.0000000000
1717675287513,3.0000000000,0.0000000000,0.0000000000,40.0000000000,9.0000000000,5.0000000000
1717675287513,3.0000000000,0.0000000000,0.0000000000,39.0000000000,9.0000000000,5.0000000000
1717675287513,3.0000000000,0.0000000000,0.0000000000,39.0000000000,9.0000000000,5.0000000000
1717675287513,3.0000000000,0.0000000000,0.0000000000,39.0000000000,9.0000000000,5.0000000000
1717675287513,3.0000000000,0.0000000000,0.0000000000,39.0000000000,9.0000000000,5.0000000000
1717675287513,3.0000000000,0.0000000000,0.0000000000,39.0000000000,9.0000000000,4.0000000000
1717675287514,3.0000000000,0.0000000000,0.0000000000,39.0000000000,9.0000000000,4.0000000000
1717675287514,3.0000000000,0.0000000000,0.0000000000,39.0000000000,9.0000000000,5.0000000000
1717675287514,3.0000000000,0.0000000000,0.0000000000,39.0000000000,9.0000000000,4.0000000000
1717675287514,3.0000000000,0.0000000000,0.0000000000,39.0000000000,9.0000000000,4.0000000000
1717675287514,3.0000000000,0.0000000000,0.0000000000,39.0000000000,9.0000000000,4.0000000000
1717675287514,3.0000000000,0.0000000000,0.0000000000,39.0000000000,9.0000000000,5.0000000000
1717675287514,3.0000000000,0.0000000000,0.0000000000,39.0000000000,9.0000000000,4.0000000000
1717675287525,3.0000000000,0.0000000000,0.0000000000,39.0000000000,9.0000000000,5.0000000000
1717675287525,4.0000000000,0.0000000000,0.0000000000,38.0000000000,8.0000000000,4.0000000000
1717675287526,4.0000000000,0.0000000000,0.0000000000,38.0000000000,9.0000000000,4.0000000000
1717675287527,4.0000000000,0.0000000000,0.0000000000,38.0000000000,9.0000000000,4.0000000000
1717675287527,4.0000000000,0.0000000000,0.0000000000,38.0000000000,9.0000000000,4.0000000000
1717675287527,3.0000000000,0.0000000000,0.0000000000,38.0000000000,13.0000000000,4.0000000000
1717675287527,4.0000000000,0.0000000000,0.0000000000,38.0000000000,18.0000000000,4.0000000000
1717675287527,4.0000000000,0.0000000000,0.0000000000,37.0000000000,17.0000000000,4.0000000000
1717675287528,4.0000000000,0.0000000000,0.0000000000,37.0000000000,17.0000000000,4.0000000000
1717675287528,3.0000000000,0.0000000000,0.0000000000,36.0000000000,17.0000000000,4.0000000000
1717675287548,4.0000000000,0.0000000000,0.0000000000,37.0000000000,17.0000000000,3.0000000000
1717675287549,4.0000000000,0.0000000000,0.0000000000,36.0000000000,17.0000000000,3.0000000000
1717675287549,4.0000000000,0.0000000000,0.0000000000,36.0000000000,17.0000000000,4.0000000000
1717675287549,3.0000000000,0.0000000000,0.0000000000,35.0000000000,17.0000000000,3.0000000000
1717675287549,4.0000000000,0.0000000000,0.0000000000,36.0000000000,16.0000000000,4.0000000000
1717675287549,4.0000000000,0.0000000000,0.0000000000,35.0000000000,17.0000000000,4.0000000000
1717675287549,4.0000000000,0.0000000000,0.0000000000,35.0000000000,16.0000000000,4.0000000000
1717675287549,4.0000000000,0.0000000000,0.0000000000,35.0000000000,17.0000000000,4.0000000000
1717675287549,4.0000000000,0.0000000000,0.0000000000,35.0000000000,16.0000000000,3.0000000000
1717675287549,4.0000000000,0.0000000000,0.0000000000,35.0000000000,17.0000000000,4.0000000000
1717675287549,4.0000000000,0.0000000000,0.0000000000,35.0000000000,16.0000000000,3.0000000000
1717675287549,4.0000000000,0.0000000000,0.0000000000,35.0000000000,16.0000000000,3.0000000000
1717675287550,3.0000000000,0.0000000000,0.0000000000,35.0000000000,16.0000000000,3.0000000000
1717675287550,3.0000000000,0.0000000000,0.0000000000,35.0000000000,15.0000000000,3.0000000000
1717675287550,4.0000000000,0.0000000000,0.0000000000,34.0000000000,15.0000000000,4.0000000000
1717675287550,3.0000000000,0.0000000000,0.0000000000,34.0000000000,15.0000000000,4.0000000000
1717675287550,3.0000000000,0.0000000000,0.0000000000,34.0000000000,15.0000000000,3.0000000000
1717675287550,3.0000000000,0.0000000000,0.0000000000,34.0000000000,16.0000000000,4.0000000000
1717675287550,3.0000000000,0.0000000000,0.0000000000,34.0000000000,15.0000000000,3.0000000000
1717675287562,3.0000000000,0.0000000000,0.0000000000,34.0000000000,15.0000000000,3.0000000000
1717675287563,3.0000000000,0.0000000000,0.0000000000,34.0000000000,15.0000000000,3.0000000000
1717675287563,3.0000000000,0.0000000000,0.0000000000,34.0000000000,15.0000000000,3.0000000000
1717675287563,3.0000000000,0.0000000000,0.0000000000,34.0000000000,15.0000000000,3.0000000000
1717675287563,4.0000000000,0.0000000000,0.0000000000,33.0000000000,15.0000000000,3.0000000000
1717675287563,3.0000000000,0.0000000000,0.0000000000,33.0000000000,15.0000000000,3.0000000000
1717675287563,4.0000000000,0.0000000000,0.0000000000,33.0000000000,15.0000000000,4.0000000000
1717675287563,3.0000000000,0.0000000000,0.0000000000,33.0000000000,15.0000000000,3.0000000000
1717675287564,3.0000000000,0.0000000000,0.0000000000,32.0000000000,15.0000000000,3.0000000000
1717675287564,3.0000000000,0.0000000000,0.0000000000,31.0000000000,15.0000000000,3.0000000000
1717675287576,3.0000000000,0.0000000000,0.0000000000,31.0000000000,15.0000000000,3.0000000000
1717675287577,4.0000000000,0.0000000000,0.0000000000,31.0000000000,15.0000000000,3.0000000000
1717675287577,3.0000000000,0.0000000000,0.0000000000,31.0000000000,14.0000000000,3.0000000000
1717675287578,3.0000000000,0.0000000000,0.0000000000,31.0000000000,15.0000000000,3.0000000000
1717675287578,4.0000000000,0.0000000000,0.0000000000,31.0000000000,15.0000000000,3.0000000000
1717675287578,3.0000000000,0.0000000000,0.0000000000,31.0000000000,14.0000000000,3.0000000000
1717675287579,4.0000000000,0.0000000000,0.0000000000,31.0000000000,15.0000000000,3.0000000000
1717675287579,3.0000000000,0.0000000000,0.0000000000,31.0000000000,14.0000000000,3.0000000000
1717675287579,4.0000000000,0.0000000000,0.0000000000,31.0000000000,15.0000000000,3.0000000000
1717675287579,3.0000000000,0.0000000000,0.0000000000,31.0000000000,14.0000000000,3.0000000000
1717675287579,4.0000000000,0.0000000000,0.0000000000,31.0000000000,14.0000000000,3.0000000000
1717675287580,3.0000000000,0.0000000000,0.0000000000,31.0000000000,14.0000000000,3.0000000000
1717675287580,4.0000000000,0.0000000000,0.0000000000,31.0000000000,14.0000000000,3.0000000000
1717675287595,3.0000000000,0.0000000000,0.0000000000,31.0000000000,14.0000000000,3.0000000000
1717675287595,3.0000000000,0.0000000000,0.0000000000,30.0000000000,14.0000000000,3.0000000000
1717675287596,3.0000000000,0.0000000000,0.0000000000,30.0000000000,14.0000000000,3.0000000000
1717675287596,3.0000000000,0.0000000000,0.0000000000,30.0000000000,14.0000000000,3.0000000000
1717675287596,3.0000000000,0.0000000000,0.0000000000,30.0000000000,14.0000000000,3.0000000000
1717675287596,4.0000000000,0.0000000000,0.0000000000,30.0000000000,14.0000000000,3.0000000000
1717675287596,3.0000000000,0.0000000000,0.0000000000,30.0000000000,13.0000000000,3.0000000000
1717675287596,3.0000000000,0.0000000000,0.0000000000,30.0000000000,13.0000000000,3.0000000000
1717675287596,3.0000000000,0.0000000000,0.0000000000,30.0000000000,14.0000000000,3.0000000000
1717675287596,3.0000000000,0.0000000000,0.0000000000,29.0000000000,13.0000000000,3.0000000000
1717675287596,3.0000000000,0.0000000000,0.0000000000,29.0000000000,13.0000000000,3.0000000000
1717675287596,4.0000000000,0.0000000000,0.0000000000,29.0000000000,13.0000000000,3.0000000000
1717675287596,4.0000000000,0.0000000000,0.0000000000,29.0000000000,13.0000000000,3.0000000000
1717675287608,7.0000000000,0.0000000000,0.0000000000,29.0000000000,13.0000000000,3.0000000000
1717675287610,7.0000000000,0.0000000000,0.0000000000,29.0000000000,13.0000000000,3.0000000000
1717675287610,7.0000000000,0.0000000000,0.0000000000,28.0000000000,13.0000000000,3.0000000000
1717675287610,7.0000000000,0.0000000000,0.0000000000,29.0000000000,13.0000000000,3.0000000000
1717675287611,6.0000000000,0.0000000000,0.0000000000,28.0000000000,13.0000000000,3.0000000000
1717675287611,6.0000000000,0.0000000000,0.0000000000,28.0000000000,13.0000000000,3.0000000000
1717675287611,6.0000000000,0.0000000000,0.0000000000,28.0000000000,12.0000000000,3.0000000000
1717675287612,7.0000000000,0.0000000000,0.0000000000,28.0000000000,14.0000000000,3.0000000000
1717675287612,6.0000000000,0.0000000000,0.0000000000,28.0000000000,14.0000000000,3.0000000000
1717675287612,7.0000000000,0.0000000000,0.0000000000,28.0000000000,14.0000000000,3.0000000000
1717675287612,6.0000000000,0.0000000000,0.0000000000,28.0000000000,15.0000000000,3.0000000000
1717675287613,6.0000000000,0.0000000000,0.0000000000,28.0000000000,14.0000000000,3.0000000000
1717675287636,6.0000000000,0.0000000000,0.0000000000,27.0000000000,14.0000000000,3.0000000000
1717675287637,6.0000000000,0.0000000000,0.0000000000,28.0000000000,14.0000000000,3.0000000000
1717675287637,6.0000000000,0.0000000000,0.0000000000,27.0000000000,14.0000000000,3.0000000000
1717675287637,6.0000000000,0.0000000000,0.0000000000,27.0000000000,14.0000000000,3.0000000000
1717675287637,6.0000000000,0.0000000000,0.0000000000,27.0000000000,14.0000000000,2.0000000000
1717675287637,6.0000000000,0.0000000000,0.0000000000,27.0000000000,14.0000000000,3.0000000000
1717675287637,6.0000000000,0.0000000000,0.0000000000,27.0000000000,14.0000000000,2.0000000000
1717675287637,6.0000000000,0.0000000000,0.0000000000,27.0000000000,13.0000000000,2.0000000000
1717675287638,6.0000000000,0.0000000000,0.0000000000,26.0000000000,14.0000000000,3.0000000000
1717675287638,6.0000000000,0.0000000000,0.0000000000,26.0000000000,14.0000000000,3.0000000000
1717675287638,6.0000000000,0.0000000000,0.0000000000,27.0000000000,14.0000000000,3.0000000000
1717675287638,6.0000000000,0.0000000000,0.0000000000,26.0000000000,14.0000000000,2.0000000000
1717675287638,6.0000000000,0.0000000000,0.0000000000,26.0000000000,14.0000000000,3.0000000000
1717675287638,6.0000000000,0.0000000000,0.0000000000,26.0000000000,14.0000000000,3.0000000000
1717675287638,6.0000000000,0.0000000000,0.0000000000,25.0000000000,14.0000000000,3.0000000000
1717675287638,6.0000000000,0.0000000000,0.0000000000,26.0000000000,14.0000000000,3.0000000000
1717675287638,5.0000000000,0.0000000000,0.0000000000,25.0000000000,14.0000000000,2.0000000000
1717675287638,6.0000000000,0.0000000000,0.0000000000,25.0000000000,14.0000000000,3.0000000000
1717675287638,6.0000000000,0.0000000000,0.0000000000,24.0000000000,14.0000000000,3.0000000000
1717675287639,6.0000000000,0.0000000000,0.0000000000,24.0000000000,14.0000000000,3.0000000000
1717675287651,6.0000000000,0.0000000000,0.0000000000,25.0000000000,13.0000000000,2.0000000000
1717675287652,6.0000000000,0.0000000000,0.0000000000,25.0000000000,13.0000000000,2.0000000000
1717675287652,6.0000000000,0.0000000000,0.0000000000,24.0000000000,14.0000000000,2.0000000000
1717675287652,6.0000000000,0.0000000000,0.0000000000,24.0000000000,13.0000000000,2.0000000000
1717675287652,6.0000000000,0.0000000000,0.0000000000,24.0000000000,13.0000000000,2.0000000000
1717675287652,6.0000000000,0.0000000000,0.0000000000,24.0000000000,13.0000000000,3.0000000000
1717675287652,5.0000000000,0.0000000000,0.0000000000,24.0000000000,13.0000000000,2.0000000000
1717675287652,6.0000000000,0.0000000000,0.0000000000,24.0000000000,12.0000000000,2.0000000000
1717675287653,6.0000000000,0.0000000000,0.0000000000,24.0000000000,13.0000000000,2.0000000000
1717675287653,6.0000000000,0.0000000000,0.0000000000,24.0000000000,12.0000000000,2.0000000000
1717675287653,6.0000000000,0.0000000000,0.0000000000,24.0000000000,13.0000000000,1.0000000000
1717675287653,5.0000000000,0.0000000000,0.0000000000,24.0000000000,13.0000000000,2.0000000000
1717675287665,5.0000000000,0.0000000000,0.0000000000,24.0000000000,12.0000000000,2.0000000000
1717675287666,6.0000000000,0.0000000000,0.0000000000,24.0000000000,12.0000000000,2.0000000000
1717675287666,6.0000000000,0.0000000000,0.0000000000,24.0000000000,12.0000000000,2.0000000000
1717675287666,6.0000000000,0.0000000000,0.0000000000,24.0000000000,12.0000000000,5.0000000000
1717675287666,5.0000000000,0.0000000000,0.0000000000,23.0000000000,12.0000000000,6.0000000000
1717675287666,6.0000000000,0.0000000000,0.0000000000,24.0000000000,12.0000000000,6.0000000000
1717675287666,5.0000000000,0.0000000000,0.0000000000,24.0000000000,12.0000000000,6.0000000000
1717675287666,6.0000000000,0.0000000000,0.0000000000,24.0000000000,12.0000000000,6.0000000000
1717675287666,5.0000000000,0.0000000000,0.0000000000,23.0000000000,12.0000000000,6.0000000000
1717675287667,5.0000000000,0.0000000000,0.0000000000,23.0000000000,12.0000000000,6.0000000000
1717675287678,6.0000000000,0.0000000000,0.0000000000,23.0000000000,12.0000000000,6.0000000000
1717675287678,5.0000000000,0.0000000000,0.0000000000,22.0000000000,12.0000000000,6.0000000000
1717675287679,5.0000000000,0.0000000000,0.0000000000,23.0000000000,11.0000000000,6.0000000000
1717675287679,5.0000000000,0.0000000000,0.0000000000,23.0000000000,12.0000000000,6.0000000000
1717675287679,5.0000000000,0.0000000000,0.0000000000,23.0000000000,12.0000000000,6.0000000000
1717675287679,5.0000000000,0.0000000000,0.0000000000,22.0000000000,12.0000000000,5.0000000000
1717675287679,5.0000000000,0.0000000000,0.0000000000,23.0000000000,12.0000000000,6.0000000000
1717675287679,5.0000000000,0.0000000000,0.0000000000,22.0000000000,12.0000000000,6.0000000000
1717675287679,5.0000000000,0.0000000000,0.0000000000,22.0000000000,11.0000000000,5.0000000000
1717675287679,5.0000000000,0.0000000000,0.0000000000,22.0000000000,12.0000000000,6.0000000000
1717675287690,5.0000000000,0.0000000000,0.0000000000,22.0000000000,12.0000000000,6.0000000000
1717675287691,5.0000000000,0.0000000000,0.0000000000,21.0000000000,12.0000000000,6.0000000000
1717675287691,6.0000000000,0.0000000000,0.0000000000,22.0000000000,12.0000000000,6.0000000000
1717675287691,5.0000000000,0.0000000000,0.0000000000,22.0000000000,11.0000000000,6.0000000000
1717675287691,6.0000000000,0.0000000000,0.0000000000,22.0000000000,12.0000000000,5.0000000000
1717675287691,5.0000000000,0.0000000000,0.0000000000,22.0000000000,13.0000000000,5.0000000000
1717675287691,5.0000000000,0.0000000000,0.0000000000,22.0000000000,14.0000000000,6.0000000000
1717675287692,5.0000000000,0.0000000000,0.0000000000,22.0000000000,13.0000000000,6.0000000000
1717675287692,4.0000000000,0.0000000000,0.0000000000,22.0000000000,13.0000000000,5.0000000000
1717675287704,4.0000000000,0.0000000000,0.0000000000,21.0000000000,12.0000000000,5.0000000000
1717675287706,5.0000000000,0.0000000000,0.0000000000,21.0000000000,12.0000000000,5.0000000000
1717675287707,4.0000000000,0.0000000000,0.0000000000,21.0000000000,13.0000000000,5.0000000000
1717675287707,5.0000000000,0.0000000000,0.0000000000,21.0000000000,13.0000000000,6.0000000000
1717675287708,5.0000000000,0.0000000000,0.0000000000,20.0000000000,13.0000000000,6.0000000000
1717675287708,7.0000000000,0.0000000000,0.0000000000,21.0000000000,12.0000000000,5.0000000000
1717675287709,7.0000000000,0.0000000000,0.0000000000,20.0000000000,12.0000000000,5.0000000000
1717675287709,7.0000000000,0.0000000000,0.0000000000,20.0000000000,12.0000000000,5.0000000000
1717675287710,6.0000000000,0.0000000000,0.0000000000,19.0000000000,12.0000000000,4.0000000000
1717675287711,7.0000000000,0.0000000000,0.0000000000,20.0000000000,12.0000000000,4.0000000000
1717675287711,6.0000000000,0.0000000000,0.0000000000,20.0000000000,12.0000000000,5.0000000000
1717675287712,6.0000000000,0.0000000000,0.0000000000,19.0000000000,12.0000000000,4.0000000000
1717675287712,6.0000000000,0.0000000000,0.0000000000,20.0000000000,12.0000000000,4.0000000000
1717675287713,6.0000000000,0.0000000000,0.0000000000,20.0000000000,12.0000000000,4.0000000000
1717675287713,6.0000000000,0.0000000000,0.0000000000,20.0000000000,12.0000000000,4.0000000000
1717675287714,6.0000000000,0.0000000000,0.0000000000,20.0000000000,12.0000000000,4.0000000000
1717675287714,6.0000000000,0.0000000000,0.0000000000,19.0000000000,12.0000000000,4.0000000000
1717675287714,6.0000000000,0.0000000000,0.0000000000,19.0000000000,12.0000000000,4.0000000000
1717675287714,6.0000000000,0.0000000000,0.0000000000,22.0000000000,12.0000000000,4.0000000000
1717675287715,6.0000000000,0.0000000000,0.0000000000,23.0000000000,11.0000000000,5.0000000000
1717675287749,6.0000000000,0.0000000000,0.0000000000,22.0000000000,12.0000000000,3.0000000000
1717675287750,6.0000000000,0.0000000000,0.0000000000,23.0000000000,12.0000000000,4.0000000000
1717675287751,7.0000000000,0.0000000000,0.0000000000,22.0000000000,12.0000000000,4.0000000000
1717675287752,6.0000000000,0.0000000000,0.0000000000,22.0000000000,11.0000000000,4.0000000000
1717675287753,6.0000000000,0.0000000000,0.0000000000,22.0000000000,12.0000000000,4.0000000000
1717675287753,6.0000000000,0.0000000000,0.0000000000,22.0000000000,12.0000000000,3.0000000000
1717675287754,6.0000000000,0.0000000000,0.0000000000,22.0000000000,39.0000000000,4.0000000000
1717675287754,6.0000000000,0.0000000000,0.0000000000,22.0000000000,67.0000000000,4.0000000000
1717675287755,6.0000000000,0.0000000000,0.0000000000,22.0000000000,67.0000000000,4.0000000000
1717675287756,6.0000000000,0.0000000000,0.0000000000,22.0000000000,67.0000000000,4.0000000000
1717675287756,6.0000000000,0.0000000000,0.0000000000,22.0000000000,66.0000000000,4.0000000000
1717675287756,6.0000000000,0.0000000000,0.0000000000,21.0000000000,65.0000000000,3.0000000000
1717675287757,6.0000000000,0.0000000000,0.0000000000,21.0000000000,65.0000000000,4.0000000000
1717675287757,6.0000000000,0.0000000000,0.0000000000,20.0000000000,65.0000000000,4.0000000000
1717675287758,6.0000000000,0.0000000000,0.0000000000,20.0000000000,65.0000000000,4.0000000000
1717675287758,6.0000000000,0.0000000000,0.0000000000,20.0000000000,63.0000000000,4.0000000000
1717675287758,7.0000000000,0.0000000000,0.0000000000,20.0000000000,63.0000000000,3.0000000000
1717675287758,7.0000000000,0.0000000000,0.0000000000,20.0000000000,63.0000000000,4.0000000000
1717675287759,7.0000000000,0.0000000000,0.0000000000,39.0000000000,63.0000000000,4.0000000000
1717675287759,7.0000000000,0.0000000000,0.0000000000,39.0000000000,63.0000000000,4.0000000000
1717675287759,7.0000000000,0.0000000000,0.0000000000,39.0000000000,63.0000000000,4.0000000000
1717675287759,7.0000000000,0.0000000000,0.0000000000,39.0000000000,63.0000000000,4.0000000000
1717675287760,7.0000000000,0.0000000000,0.0000000000,39.0000000000,63.0000000000,3.0000000000
1717675287761,6.0000000000,0.0000000000,0.0000000000,39.0000000000,62.0000000000,3.0000000000
1717675287761,7.0000000000,0.0000000000,0.0000000000,39.0000000000,62.0000000000,3.0000000000
1717675287761,7.0000000000,0.0000000000,0.0000000000,38.0000000000,61.0000000000,3.0000000000
1717675287762,6.0000000000,0.0000000000,0.0000000000,38.0000000000,61.0000000000,3.0000000000
1717675287762,7.0000000000,0.0000000000,0.0000000000,38.0000000000,61.0000000000,3.0000000000
1717675287762,7.0000000000,0.0000000000,0.0000000000,38.0000000000,60.0000000000,4.0000000000
1717675287762,7.0000000000,0.0000000000,0.0000000000,37.0000000000,60.0000000000,3.0000000000
1717675287762,6.0000000000,0.0000000000,0.0000000000,37.0000000000,60.0000000000,3.0000000000
1717675287763,7.0000000000,0.0000000000,0.0000000000,37.0000000000,60.0000000000,3.0000000000
1717675287763,7.0000000000,0.0000000000,0.0000000000,36.0000000000,60.0000000000,3.0000000000
1717675287763,7.0000000000,0.0000000000,0.0000000000,37.0000000000,59.0000000000,3.0000000000
1717675287763,6.0000000000,0.0000000000,0.0000000000,36.0000000000,59.0000000000,3.0000000000
1717675287764,6.0000000000,0.0000000000,0.0000000000,36.0000000000,59.0000000000,3.0000000000
1717675287764,7.0000000000,0.0000000000,0.0000000000,36.0000000000,59.0000000000,3.0000000000
1717675287764,7.0000000000,0.0000000000,0.0000000000,35.0000000000,57.0000000000,3.0000000000
1717675287786,7.0000000000,0.0000000000,0.0000000000,36.0000000000,57.0000000000,3.0000000000
1717675287787,7.0000000000,0.0000000000,0.0000000000,35.0000000000,57.0000000000,3.0000000000
1717675287787,7.0000000000,0.0000000000,0.0000000000,35.0000000000,57.0000000000,3.0000000000
1717675287787,6.0000000000,0.0000000000,0.0000000000,35.0000000000,56.0000000000,3.0000000000
1717675287787,6.0000000000,0.0000000000,0.0000000000,35.0000000000,56.0000000000,3.0000000000
1717675287787,6.0000000000,0.0000000000,0.0000000000,35.0000000000,57.0000000000,3.0000000000
1717675287787,6.0000000000,0.0000000000,0.0000000000,35.0000000000,56.0000000000,3.0000000000
1717675287788,6.0000000000,0.0000000000,0.0000000000,35.0000000000,56.0000000000,3.0000000000
1717675287788,6.0000000000,0.0000000000,0.0000000000,35.0000000000,56.0000000000,3.0000000000
1717675287788,6.0000000000,0.0000000000,0.0000000000,34.0000000000,56.0000000000,3.0000000000
1717675287788,6.0000000000,0.0000000000,0.0000000000,34.0000000000,56.0000000000,3.0000000000
1717675287788,6.0000000000,0.0000000000,0.0000000000,34.0000000000,56.0000000000,3.0000000000
1717675287788,6.0000000000,0.0000000000,0.0000000000,33.0000000000,55.0000000000,3.0000000000
1717675287788,6.0000000000,0.0000000000,0.0000000000,34.0000000000,55.0000000000,3.0000000000
1717675287788,6.0000000000,0.0000000000,0.0000000000,35.0000000000,55.0000000000,3.0000000000
1717675287789,6.0000000000,0.0000000000,0.0000000000,35.0000000000,54.0000000000,3.0000000000
1717675287789,6.0000000000,0.0000000000,0.0000000000,109.0000000000,54.0000000000,3.0000000000
1717675287789,6.0000000000,0.0000000000,0.0000000000,143.0000000000,54.0000000000,3.0000000000
1717675287789,6.0000000000,0.0000000000,0.0000000000,142.0000000000,54.0000000000,3.0000000000
1717675287802,6.0000000000,0.0000000000,0.0000000000,140.0000000000,53.0000000000,3.0000000000
1717675287803,6.0000000000,0.0000000000,0.0000000000,139.0000000000,53.0000000000,2.0000000000
1717675287803,6.0000000000,0.0000000000,0.0000000000,139.0000000000,52.0000000000,3.0000000000
1717675287803,6.0000000000,0.0000000000,0.0000000000,137.0000000000,52.0000000000,3.0000000000
1717675287804,6.0000000000,0.0000000000,0.0000000000,137.0000000000,52.0000000000,3.0000000000
1717675287804,6.0000000000,0.0000000000,0.0000000000,135.0000000000,52.0000000000,3.0000000000
1717675287804,7.0000000000,0.0000000000,0.0000000000,135.0000000000,52.0000000000,2.0000000000
1717675287804,7.0000000000,0.0000000000,0.0000000000,135.0000000000,51.0000000000,3.0000000000
1717675287804,6.0000000000,0.0000000000,0.0000000000,135.0000000000,51.0000000000,3.0000000000
1717675287804,6.0000000000,0.0000000000,0.0000000000,133.0000000000,51.0000000000,2.0000000000
1717675287804,6.0000000000,0.0000000000,0.0000000000,133.0000000000,51.0000000000,3.0000000000
1717675287804,6.0000000000,0.0000000000,0.0000000000,132.0000000000,51.0000000000,3.0000000000
1717675287817,6.0000000000,0.0000000000,0.0000000000,131.0000000000,50.0000000000,3.0000000000
1717675287818,6.0000000000,0.0000000000,0.0000000000,131.0000000000,50.0000000000,2.0000000000
1717675287818,6.0000000000,0.0000000000,0.0000000000,130.0000000000,50.0000000000,3.0000000000
1717675287818,6.0000000000,0.0000000000,0.0000000000,129.0000000000,50.0000000000,2.0000000000
1717675287818,6.0000000000,0.0000000000,0.0000000000,129.0000000000,49.0000000000,2.0000000000
1717675287818,6.0000000000,0.0000000000,0.0000000000,127.0000000000,49.0000000000,3.0000000000
1717675287818,5.0000000000,0.0000000000,0.0000000000,127.0000000000,49.0000000000,3.0000000000
1717675287818,6.0000000000,0.0000000000,0.0000000000,127.0000000000,49.0000000000,2.0000000000
1717675287819,6.0000000000,0.0000000000,0.0000000000,126.0000000000,48.0000000000,3.0000000000
1717675287831,6.0000000000,0.0000000000,0.0000000000,126.0000000000,48.0000000000,3.0000000000
1717675287832,6.0000000000,0.0000000000,0.0000000000,126.0000000000,48.0000000000,2.0000000000
1717675287832,6.0000000000,0.0000000000,0.0000000000,124.0000000000,48.0000000000,3.0000000000
1717675287832,6.0000000000,0.0000000000,0.0000000000,124.0000000000,48.0000000000,3.0000000000
1717675287832,6.0000000000,0.0000000000,0.0000000000,123.0000000000,47.0000000000,3.0000000000
1717675287832,6.0000000000,0.0000000000,0.0000000000,123.0000000000,47.0000000000,2.0000000000
1717675287832,6.0000000000,0.0000000000,0.0000000000,123.0000000000,47.0000000000,2.0000000000
1717675287832,6.0000000000,0.0000000000,1.0000000000,121.0000000000,47.0000000000,1.0000000000
1717675287833,6.0000000000,0.0000000000,1.0000000000,121.0000000000,47.0000000000,2.0000000000
1717675287833,6.0000000000,0.0000000000,1.0000000000,120.0000000000,47.0000000000,3.0000000000
1717675287833,6.0000000000,0.0000000000,1.0000000000,120.0000000000,47.0000000000,2.0000000000
1717675287833,6.0000000000,0.0000000000,3.0000000000,120.0000000000,46.0000000000,3.0000000000
1717675287845,6.0000000000,0.0000000000,3.0000000000,119.0000000000,46.0000000000,2.0000000000
1717675287846,6.0000000000,0.0000000000,3.0000000000,119.0000000000,46.0000000000,2.0000000000
1717675287846,6.0000000000,0.0000000000,2.0000000000,118.0000000000,45.0000000000,2.0000000000
1717675287846,6.0000000000,0.0000000000,2.0000000000,117.0000000000,45.0000000000,1.0000000000
1717675287846,6.0000000000,0.0000000000,2.0000000000,116.0000000000,45.0000000000,2.0000000000
1717675287847,6.0000000000,0.0000000000,2.0000000000,116.0000000000,45.0000000000,2.0000000000
1717675287847,6.0000000000,0.0000000000,3.0000000000,115.0000000000,44.0000000000,2.0000000000
1717675287847,5.0000000000,0.0000000000,2.0000000000,143.0000000000,44.0000000000,2.0000000000
1717675287847,6.0000000000,0.0000000000,3.0000000000,188.0000000000,44.0000000000,2.0000000000
1717675287862,5.0000000000,0.0000000000,2.0000000000,187.0000000000,44.0000000000,2.0000000000
1717675287863,5.0000000000,0.0000000000,3.0000000000,185.0000000000,44.0000000000,2.0000000000
1717675287863,6.0000000000,0.0000000000,3.0000000000,184.0000000000,44.0000000000,2.0000000000
1717675287863,6.0000000000,0.0000000000,2.0000000000,184.0000000000,44.0000000000,1.0000000000
1717675287863,5.0000000000,0.0000000000,2.0000000000,182.0000000000,44.0000000000,2.0000000000
1717675287863,6.0000000000,0.0000000000,2.0000000000,181.0000000000,44.0000000000,2.0000000000
1717675287863,6.0000000000,0.0000000000,2.0000000000,180.0000000000,43.0000000000,2.0000000000
1717675287863,6.0000000000,0.0000000000,2.0000000000,217.0000000000,43.0000000000,2.0000000000
1717675287864,5.0000000000,0.0000000000,2.0000000000,215.0000000000,43.0000000000,1.0000000000
1717675287864,6.0000000000,0.0000000000,2.0000000000,214.0000000000,42.0000000000,1.0000000000
1717675287864,6.0000000000,0.0000000000,2.0000000000,212.0000000000,42.0000000000,1.0000000000
1717675287864,5.0000000000,0.0000000000,2.0000000000,211.0000000000,42.0000000000,1.0000000000
1717675287878,6.0000000000,0.0000000000,2.0000000000,209.0000000000,42.0000000000,2.0000000000
1717675287879,5.0000000000,0.0000000000,2.0000000000,208.0000000000,41.0000000000,1.0000000000
1717675287879,5.0000000000,0.0000000000,2.0000000000,207.0000000000,134.0000000000,1.0000000000
1717675287879,5.0000000000,0.0000000000,1.0000000000,207.0000000000,131.0000000000,1.0000000000
1717675287879,5.0000000000,0.0000000000,2.0000000000,205.0000000000,130.0000000000,2.0000000000
1717675287879,5.0000000000,0.0000000000,24.0000000000,252.0000000000,129.0000000000,2.0000000000
1717675287879,5.0000000000,0.0000000000,39.0000000000,249.0000000000,127.0000000000,1.0000000000
1717675287879,4.0000000000,0.0000000000,39.0000000000,248.0000000000,127.0000000000,1.0000000000
1717675287879,5.0000000000,0.0000000000,38.0000000000,246.0000000000,127.0000000000,1.0000000000
1717675287879,4.0000000000,0.0000000000,38.0000000000,244.0000000000,126.0000000000,1.0000000000
1717675287880,5.0000000000,0.0000000000,38.0000000000,243.0000000000,126.0000000000,2.0000000000
1717675287892,5.0000000000,0.0000000000,38.0000000000,241.0000000000,124.0000000000,1.0000000000
1717675287894,5.0000000000,0.0000000000,36.0000000000,240.0000000000,124.0000000000,1.0000000000
1717675287894,4.0000000000,0.0000000000,36.0000000000,239.0000000000,124.0000000000,1.0000000000
1717675287894,4.0000000000,0.0000000000,37.0000000000,290.0000000000,123.0000000000,2.0000000000
1717675287895,5.0000000000,0.0000000000,36.0000000000,312.0000000000,121.0000000000,1.0000000000
1717675287895,5.0000000000,0.0000000000,36.0000000000,310.0000000000,121.0000000000,1.0000000000
1717675287895,5.0000000000,0.0000000000,36.0000000000,307.0000000000,120.0000000000,1.0000000000
1717675287895,5.0000000000,0.0000000000,35.0000000000,355.0000000000,120.0000000000,1.0000000000
1717675287895,5.0000000000,0.0000000000,35.0000000000,352.0000000000,120.0000000000,1.0000000000
1717675287895,5.0000000000,0.0000000000,35.0000000000,348.0000000000,119.0000000000,1.0000000000
1717675287895,5.0000000000,0.0000000000,35.0000000000,345.0000000000,119.0000000000,1.0000000000
1717675287908,4.0000000000,0.0000000000,35.0000000000,343.0000000000,118.0000000000,1.0000000000
1717675287908,5.0000000000,0.0000000000,35.0000000000,340.0000000000,116.0000000000,1.0000000000
1717675287909,6.0000000000,0.0000000000,35.0000000000,342.0000000000,116.0000000000,1.0000000000
1717675287909,6.0000000000,0.0000000000,34.0000000000,344.0000000000,116.0000000000,1.0000000000
1717675287909,6.0000000000,0.0000000000,34.0000000000,342.0000000000,115.0000000000,1.0000000000
1717675287909,5.0000000000,0.0000000000,34.0000000000,339.0000000000,115.0000000000,1.0000000000
1717675287909,5.0000000000,0.0000000000,33.0000000000,337.0000000000,113.0000000000,1.0000000000
1717675287909,5.0000000000,0.0000000000,33.0000000000,335.0000000000,113.0000000000,1.0000000000
1717675287922,4.0000000000,0.0000000000,36.0000000000,334.0000000000,113.0000000000,1.0000000000
1717675287923,5.0000000000,0.0000000000,124.0000000000,422.0000000000,112.0000000000,1.0000000000
1717675287923,5.0000000000,0.0000000000,124.0000000000,416.0000000000,112.0000000000,1.0000000000
1717675287923,5.0000000000,0.0000000000,122.0000000000,413.0000000000,111.0000000000,1.0000000000
1717675287923,4.0000000000,0.0000000000,121.0000000000,411.0000000000,111.0000000000,1.0000000000
1717675287924,6.0000000000,0.0000000000,120.0000000000,408.0000000000,110.0000000000,1.0000000000
1717675287924,7.0000000000,0.0000000000,120.0000000000,403.0000000000,109.0000000000,1.0000000000
1717675287924,7.0000000000,0.0000000000,119.0000000000,400.0000000000,109.0000000000,1.0000000000
1717675287924,7.0000000000,0.0000000000,118.0000000000,409.0000000000,108.0000000000,1.0000000000
1717675287924,7.0000000000,0.0000000000,117.0000000000,407.0000000000,108.0000000000,1.0000000000
1717675287936,7.0000000000,0.0000000000,116.0000000000,403.0000000000,107.0000000000,1.0000000000
1717675287938,7.0000000000,3.0000000000,115.0000000000,399.0000000000,107.0000000000,1.0000000000
1717675287939,7.0000000000,3.0000000000,150.0000000000,398.0000000000,105.0000000000,1.0000000000
1717675287940,7.0000000000,3.0000000000,196.0000000000,395.0000000000,105.0000000000,1.0000000000
1717675287940,7.0000000000,3.0000000000,195.0000000000,409.0000000000,105.0000000000,1.0000000000
1717675287941,7.0000000000,3.0000000000,193.0000000000,406.0000000000,103.0000000000,1.0000000000
1717675287941,7.0000000000,3.0000000000,192.0000000000,403.0000000000,120.0000000000,1.0000000000
1717675287941,7.0000000000,3.0000000000,191.0000000000,400.0000000000,154.0000000000,2.0000000000
1717675287941,7.0000000000,3.0000000000,190.0000000000,397.0000000000,152.0000000000,2.0000000000
1717675287941,7.0000000000,3.0000000000,188.0000000000,395.0000000000,152.0000000000,2.0000000000
1717675287953,8.0000000000,3.0000000000,187.0000000000,391.0000000000,150.0000000000,2.0000000000
1717675287954,7.0000000000,3.0000000000,185.0000000000,390.0000000000,149.0000000000,3.0000000000
1717675287954,8.0000000000,3.0000000000,185.0000000000,499.0000000000,148.0000000000,3.0000000000
1717675287954,7.0000000000,3.0000000000,184.0000000000,508.0000000000,147.0000000000,2.0000000000
1717675287954,7.0000000000,3.0000000000,183.0000000000,504.0000000000,146.0000000000,2.0000000000
1717675287954,7.0000000000,3.0000000000,182.0000000000,499.0000000000,146.0000000000,2.0000000000
1717675287954,7.0000000000,3.0000000000,180.0000000000,494.0000000000,145.0000000000,2.0000000000
1717675287954,8.0000000000,3.0000000000,180.0000000000,491.0000000000,144.0000000000,2.0000000000
1717675287967,7.0000000000,3.0000000000,179.0000000000,487.0000000000,143.0000000000,2.0000000000
1717675287969,7.0000000000,2.0000000000,177.0000000000,483.0000000000,143.0000000000,2.0000000000
1717675287969,7.0000000000,3.0000000000,177.0000000000,479.0000000000,142.0000000000,2.0000000000
1717675287970,7.0000000000,3.0000000000,176.0000000000,532.0000000000,141.0000000000,2.0000000000
1717675287970,7.0000000000,3.0000000000,175.0000000000,527.0000000000,140.0000000000,2.0000000000
1717675287971,7.0000000000,3.0000000000,174.0000000000,524.0000000000,140.0000000000,2.0000000000
1717675287971,7.0000000000,3.0000000000,173.0000000000,518.0000000000,139.0000000000,2.0000000000
1717675287972,7.0000000000,6.0000000000,172.0000000000,514.0000000000,138.0000000000,1.0000000000
1717675287972,7.0000000000,7.0000000000,171.0000000000,510.0000000000,137.0000000000,2.0000000000
1717675287972,7.0000000000,6.0000000000,171.0000000000,548.0000000000,135.0000000000,2.0000000000
1717675287972,7.0000000000,7.0000000000,169.0000000000,542.0000000000,135.0000000000,2.0000000000
1717675287973,7.0000000000,7.0000000000,169.0000000000,537.0000000000,154.0000000000,2.0000000000
1717675287973,7.0000000000,6.0000000000,167.0000000000,533.0000000000,152.0000000000,2.0000000000
1717675287988,7.0000000000,6.0000000000,167.0000000000,529.0000000000,152.0000000000,2.0000000000
1717675287989,7.0000000000,6.0000000000,166.0000000000,556.0000000000,151.0000000000,2.0000000000
1717675287989,7.0000000000,6.0000000000,165.0000000000,551.0000000000,150.0000000000,9.0000000000
1717675287989,17.0000000000,6.0000000000,164.0000000000,547.0000000000,149.0000000000,18.0000000000
1717675287990,17.0000000000,6.0000000000,163.0000000000,540.0000000000,148.0000000000,17.0000000000
1717675287990,17.0000000000,6.0000000000,163.0000000000,536.0000000000,147.0000000000,18.0000000000
1717675287990,16.0000000000,6.0000000000,161.0000000000,531.0000000000,147.0000000000,17.0000000000
1717675287990,16.0000000000,6.0000000000,161.0000000000,526.0000000000,145.0000000000,17.0000000000
1717675287991,16.0000000000,6.0000000000,159.0000000000,522.0000000000,144.0000000000,17.0000000000
1717675288004,15.0000000000,6.0000000000,159.0000000000,516.0000000000,143.0000000000,17.0000000000
1717675288004,16.0000000000,6.0000000000,158.0000000000,513.0000000000,143.0000000000,17.0000000000
1717675288004,15.0000000000,6.0000000000,157.0000000000,508.0000000000,142.0000000000,16.0000000000
1717675288004,15.0000000000,6.0000000000,156.0000000000,504.0000000000,141.0000000000,16.0000000000
1717675288004,24.0000000000,6.0000000000,155.0000000000,547.0000000000,140.0000000000,16.0000000000
1717675288005,24.0000000000,6.0000000000,155.0000000000,541.0000000000,140.0000000000,16.0000000000
1717675288005,24.0000000000,5.0000000000,153.0000000000,536.0000000000,139.0000000000,16.0000000000
1717675288005,23.0000000000,6.0000000000,152.0000000000,531.0000000000,137.0000000000,15.0000000000
1717675288005,23.0000000000,7.0000000000,152.0000000000,527.0000000000,137.0000000000,15.0000000000
1717675288018,23.0000000000,7.0000000000,151.0000000000,522.0000000000,135.0000000000,16.0000000000
1717675288019,23.0000000000,7.0000000000,150.0000000000,517.0000000000,135.0000000000,16.0000000000
1717675288019,23.0000000000,7.0000000000,149.0000000000,632.0000000000,134.0000000000,15.0000000000
1717675288019,23.0000000000,7.0000000000,148.0000000000,624.0000000000,134.0000000000,15.0000000000
1717675288019,22.0000000000,7.0000000000,148.0000000000,617.0000000000,133.0000000000,15.0000000000
1717675288019,22.0000000000,7.0000000000,147.0000000000,611.0000000000,132.0000000000,15.0000000000
1717675288019,22.0000000000,7.0000000000,146.0000000000,604.0000000000,131.0000000000,15.0000000000
1717675288033,22.0000000000,7.0000000000,145.0000000000,600.0000000000,131.0000000000,15.0000000000
1717675288034,22.0000000000,7.0000000000,145.0000000000,592.0000000000,129.0000000000,15.0000000000
1717675288034,22.0000000000,7.0000000000,143.0000000000,588.0000000000,157.0000000000,15.0000000000
1717675288034,22.0000000000,7.0000000000,143.0000000000,582.0000000000,156.0000000000,15.0000000000
1717675288034,21.0000000000,7.0000000000,142.0000000000,577.0000000000,155.0000000000,14.0000000000
1717675288034,21.0000000000,7.0000000000,142.0000000000,572.0000000000,153.0000000000,15.0000000000
1717675288034,21.0000000000,7.0000000000,140.0000000000,566.0000000000,152.0000000000,15.0000000000
1717675288034,21.0000000000,6.0000000000,140.0000000000,561.0000000000,152.0000000000,15.0000000000
1717675288034,20.0000000000,7.0000000000,139.0000000000,556.0000000000,152.0000000000,14.0000000000
1717675288047,20.0000000000,7.0000000000,139.0000000000,551.0000000000,150.0000000000,14.0000000000
1717675288048,20.0000000000,7.0000000000,137.0000000000,546.0000000000,149.0000000000,14.0000000000
1717675288048,20.0000000000,7.0000000000,137.0000000000,541.0000000000,148.0000000000,14.0000000000
1717675288048,20.0000000000,6.0000000000,135.0000000000,537.0000000000,147.0000000000,14.0000000000
1717675288048,20.0000000000,6.0000000000,135.0000000000,532.0000000000,146.0000000000,14.0000000000
1717675288048,19.0000000000,6.0000000000,135.0000000000,529.0000000000,145.0000000000,14.0000000000
1717675288048,19.0000000000,6.0000000000,134.0000000000,524.0000000000,143.0000000000,14.0000000000
1717675288061,19.0000000000,6.0000000000,133.0000000000,519.0000000000,143.0000000000,13.0000000000
1717675288062,19.0000000000,6.0000000000,132.0000000000,515.0000000000,143.0000000000,13.0000000000
1717675288063,19.0000000000,6.0000000000,131.0000000000,511.0000000000,142.0000000000,14.0000000000
1717675288063,19.0000000000,6.0000000000,131.0000000000,507.0000000000,141.0000000000,13.0000000000
1717675288063,19.0000000000,6.0000000000,131.0000000000,503.0000000000,140.0000000000,14.0000000000
1717675288063,19.0000000000,6.0000000000,130.0000000000,532.0000000000,140.0000000000,13.0000000000
1717675288063,19.0000000000,5.0000000000,129.0000000000,527.0000000000,192.0000000000,13.0000000000
1717675288063,35.0000000000,6.0000000000,128.0000000000,689.0000000000,230.0000000000,13.0000000000
1717675288063,35.0000000000,6.0000000000,127.0000000000,681.0000000000,227.0000000000,14.0000000000
1717675288079,35.0000000000,6.0000000000,127.0000000000,672.0000000000,227.0000000000,13.0000000000
1717675288081,34.0000000000,6.0000000000,127.0000000000,667.0000000000,225.0000000000,13.0000000000
1717675288081,34.0000000000,6.0000000000,126.0000000000,659.0000000000,224.0000000000,14.0000000000
1717675288082,33.0000000000,7.0000000000,125.0000000000,651.0000000000,223.0000000000,13.0000000000
1717675288082,33.0000000000,6.0000000000,124.0000000000,646.0000000000,220.0000000000,13.0000000000
1717675288082,33.0000000000,6.0000000000,124.0000000000,638.0000000000,220.0000000000,13.0000000000
1717675288082,33.0000000000,27.0000000000,127.0000000000,632.0000000000,280.0000000000,39.0000000000
1717675288083,67.0000000000,159.0000000000,203.0000000000,626.0000000000,275.0000000000,38.0000000000
1717675288083,65.0000000000,157.0000000000,201.0000000000,639.0000000000,272.0000000000,37.0000000000
1717675288083,64.0000000000,155.0000000000,199.0000000000,757.0000000000,271.0000000000,36.0000000000
1717675288083,63.0000000000,153.0000000000,198.0000000000,745.0000000000,268.0000000000,36.0000000000
1717675288109,63.0000000000,152.0000000000,196.0000000000,736.0000000000,267.0000000000,36.0000000000
1717675288109,63.0000000000,240.0000000000,209.0000000000,728.0000000000,263.0000000000,36.0000000000
1717675288109,63.0000000000,243.0000000000,341.0000000000,718.0000000000,263.0000000000,35.0000000000
1717675288110,62.0000000000,240.0000000000,359.0000000000,708.0000000000,261.0000000000,35.0000000000
1717675288110,62.0000000000,238.0000000000,356.0000000000,700.0000000000,259.0000000000,35.0000000000
1717675288110,61.0000000000,236.0000000000,353.0000000000,691.0000000000,257.0000000000,34.0000000000
1717675288110,60.0000000000,233.0000000000,350.0000000000,684.0000000000,255.0000000000,34.0000000000
1717675288110,60.0000000000,231.0000000000,347.0000000000,676.0000000000,254.0000000000,34.0000000000
1717675288110,60.0000000000,231.0000000000,344.0000000000,668.0000000000,252.0000000000,34.0000000000
1717675288110,60.0000000000,228.0000000000,342.0000000000,662.0000000000,250.0000000000,33.0000000000
1717675288110,59.0000000000,227.0000000000,339.0000000000,655.0000000000,248.0000000000,33.0000000000
1717675288110,59.0000000000,225.0000000000,336.0000000000,728.0000000000,247.0000000000,33.0000000000
1717675288111,59.0000000000,224.0000000000,334.0000000000,719.0000000000,245.0000000000,33.0000000000
1717675288111,57.0000000000,222.0000000000,332.0000000000,710.0000000000,243.0000000000,32.0000000000
1717675288111,57.0000000000,221.0000000000,329.0000000000,701.0000000000,241.0000000000,31.0000000000
1717675288125,57.0000000000,220.0000000000,327.0000000000,692.0000000000,240.0000000000,32.0000000000
1717675288125,56.0000000000,217.0000000000,324.0000000000,684.0000000000,238.0000000000,32.0000000000
1717675288125,56.0000000000,216.0000000000,322.0000000000,675.0000000000,236.0000000000,31.0000000000
1717675288125,56.0000000000,215.0000000000,319.0000000000,668.0000000000,236.0000000000,31.0000000000
1717675288126,56.0000000000,213.0000000000,318.0000000000,661.0000000000,233.0000000000,31.0000000000
1717675288126,55.0000000000,211.0000000000,316.0000000000,654.0000000000,231.0000000000,31.0000000000
1717675288138,55.0000000000,210.0000000000,313.0000000000,672.0000000000,231.0000000000,30.0000000000
1717675288139,54.0000000000,208.0000000000,312.0000000000,664.0000000000,230.0000000000,31.0000000000
1717675288140,54.0000000000,207.0000000000,309.0000000000,656.0000000000,227.0000000000,30.0000000000
1717675288140,54.0000000000,206.0000000000,307.0000000000,651.0000000000,226.0000000000,30.0000000000
1717675288140,53.0000000000,204.0000000000,305.0000000000,643.0000000000,224.0000000000,30.0000000000
1717675288140,53.0000000000,204.0000000000,303.0000000000,694.0000000000,224.0000000000,30.0000000000
1717675288140,52.0000000000,202.0000000000,300.0000000000,721.0000000000,222.0000000000,30.0000000000
1717675288141,52.0000000000,201.0000000000,299.0000000000,711.0000000000,220.0000000000,30.0000000000
1717675288141,51.0000000000,199.0000000000,295.0000000000,703.0000000000,220.0000000000,29.0000000000
1717675288154,51.0000000000,199.0000000000,295.0000000000,695.0000000000,217.0000000000,29.0000000000
1717675288154,51.0000000000,197.0000000000,293.0000000000,687.0000000000,216.0000000000,29.0000000000
1717675288154,51.0000000000,195.0000000000,291.0000000000,678.0000000000,216.0000000000,28.0000000000
1717675288155,50.0000000000,194.0000000000,289.0000000000,671.0000000000,214.0000000000,28.0000000000
1717675288155,50.0000000000,193.0000000000,287.0000000000,769.0000000000,212.0000000000,28.0000000000
1717675288155,50.0000000000,192.0000000000,285.0000000000,756.0000000000,211.0000000000,28.0000000000
1717675288168,49.0000000000,191.0000000000,284.0000000000,768.0000000000,209.0000000000,28.0000000000
1717675288169,49.0000000000,190.0000000000,281.0000000000,777.0000000000,208.0000000000,28.0000000000
1717675288169,49.0000000000,188.0000000000,280.0000000000,769.0000000000,207.0000000000,27.0000000000
1717675288169,48.0000000000,188.0000000000,278.0000000000,760.0000000000,206.0000000000,27.0000000000
1717675288169,48.0000000000,187.0000000000,276.0000000000,750.0000000000,204.0000000000,27.0000000000
1717675288169,48.0000000000,185.0000000000,274.0000000000,740.0000000000,204.0000000000,27.0000000000
1717675288169,47.0000000000,184.0000000000,273.0000000000,731.0000000000,201.0000000000,27.0000000000
1717675288169,47.0000000000,183.0000000000,271.0000000000,722.0000000000,201.0000000000,27.0000000000
1717675288225,47.0000000000,182.0000000000,269.0000000000,713.0000000000,199.0000000000,26.0000000000
1717675288226,47.0000000000,180.0000000000,268.0000000000,704.0000000000,199.0000000000,26.0000000000
1717675288226,46.0000000000,179.0000000000,265.0000000000,696.0000000000,198.0000000000,26.0000000000
1717675288227,46.0000000000,178.0000000000,263.0000000000,688.0000000000,196.0000000000,25.0000000000
1717675288227,46.0000000000,177.0000000000,263.0000000000,680.0000000000,195.0000000000,25.0000000000
1717675288227,46.0000000000,176.0000000000,262.0000000000,673.0000000000,194.0000000000,25.0000000000
1717675288228,45.0000000000,175.0000000000,259.0000000000,666.0000000000,202.0000000000,25.0000000000
1717675288228,45.0000000000,174.0000000000,257.0000000000,659.0000000000,201.0000000000,25.0000000000
1717675288228,44.0000000000,172.0000000000,255.0000000000,659.0000000000,199.0000000000,25.0000000000
1717675288228,44.0000000000,172.0000000000,255.0000000000,652.0000000000,198.0000000000,25.0000000000
1717675288229,44.0000000000,171.0000000000,253.0000000000,692.0000000000,196.0000000000,24.0000000000
1717675288229,44.0000000000,169.0000000000,252.0000000000,684.0000000000,195.0000000000,24.0000000000
1717675288229,43.0000000000,168.0000000000,250.0000000000,675.0000000000,193.0000000000,24.0000000000
1717675288229,43.0000000000,167.0000000000,248.0000000000,667.0000000000,193.0000000000,24.0000000000
1717675288230,43.0000000000,167.0000000000,248.0000000000,659.0000000000,192.0000000000,24.0000000000
1717675288230,42.0000000000,166.0000000000,246.0000000000,652.0000000000,191.0000000000,24.0000000000
1717675288230,42.0000000000,164.0000000000,244.0000000000,644.0000000000,189.0000000000,24.0000000000
1717675288230,42.0000000000,163.0000000000,243.0000000000,638.0000000000,188.0000000000,24.0000000000
1717675288231,41.0000000000,163.0000000000,241.0000000000,631.0000000000,188.0000000000,23.0000000000
1717675288231,41.0000000000,162.0000000000,240.0000000000,625.0000000000,249.0000000000,24.0000000000
1717675288231,40.0000000000,160.0000000000,239.0000000000,617.0000000000,248.0000000000,23.0000000000
1717675288231,41.0000000000,159.0000000000,238.0000000000,611.0000000000,245.0000000000,23.0000000000
1717675288232,40.0000000000,159.0000000000,236.0000000000,605.0000000000,243.0000000000,22.0000000000
1717675288232,40.0000000000,158.0000000000,235.0000000000,600.0000000000,241.0000000000,22.0000000000
1717675288232,39.0000000000,157.0000000000,233.0000000000,595.0000000000,239.0000000000,23.0000000000
1717675288232,39.0000000000,156.0000000000,231.0000000000,590.0000000000,238.0000000000,23.0000000000
1717675288233,39.0000000000,155.0000000000,230.0000000000,630.0000000000,236.0000000000,22.0000000000
1717675288233,39.0000000000,154.0000000000,229.0000000000,622.0000000000,233.0000000000,22.0000000000
1717675288233,39.0000000000,153.0000000000,227.0000000000,615.0000000000,231.0000000000,22.0000000000
1717675288234,39.0000000000,152.0000000000,226.0000000000,608.0000000000,231.0000000000,22.0000000000
1717675288234,39.0000000000,152.0000000000,225.0000000000,601.0000000000,230.0000000000,21.0000000000
1717675288234,39.0000000000,151.0000000000,224.0000000000,595.0000000000,228.0000000000,22.0000000000
1717675288234,39.0000000000,150.0000000000,223.0000000000,671.0000000000,227.0000000000,22.0000000000
1717675288235,39.0000000000,148.0000000000,221.0000000000,663.0000000000,225.0000000000,21.0000000000
1717675288258,39.0000000000,147.0000000000,220.0000000000,655.0000000000,224.0000000000,21.0000000000
1717675288258,38.0000000000,185.0000000000,219.0000000000,647.0000000000,222.0000000000,20.0000000000
1717675288258,38.0000000000,184.0000000000,217.0000000000,639.0000000000,220.0000000000,20.0000000000
1717675288258,37.0000000000,183.0000000000,216.0000000000,634.0000000000,219.0000000000,20.0000000000
1717675288259,38.0000000000,182.0000000000,215.0000000000,627.0000000000,217.0000000000,20.0000000000
1717675288259,36.0000000000,180.0000000000,214.0000000000,620.0000000000,216.0000000000,20.0000000000
1717675288259,36.0000000000,179.0000000000,212.0000000000,614.0000000000,215.0000000000,20.0000000000
1717675288259,36.0000000000,177.0000000000,211.0000000000,607.0000000000,213.0000000000,20.0000000000
1717675288259,36.0000000000,176.0000000000,209.0000000000,600.0000000000,211.0000000000,19.0000000000
1717675288259,35.0000000000,175.0000000000,209.0000000000,594.0000000000,210.0000000000,19.0000000000
1717675288259,35.0000000000,174.0000000000,207.0000000000,588.0000000000,209.0000000000,19.0000000000
1717675288259,35.0000000000,173.0000000000,207.0000000000,582.0000000000,207.0000000000,19.0000000000
1717675288276,35.0000000000,172.0000000000,205.0000000000,575.0000000000,207.0000000000,19.0000000000
1717675288277,35.0000000000,171.0000000000,204.0000000000,571.0000000000,205.0000000000,19.0000000000
1717675288277,35.0000000000,169.0000000000,204.0000000000,566.0000000000,204.0000000000,19.0000000000
1717675288277,35.0000000000,167.0000000000,202.0000000000,560.0000000000,203.0000000000,19.0000000000
1717675288277,35.0000000000,167.0000000000,201.0000000000,555.0000000000,201.0000000000,18.0000000000
1717675288277,34.0000000000,166.0000000000,199.0000000000,551.0000000000,199.0000000000,18.0000000000
1717675288278,34.0000000000,165.0000000000,199.0000000000,545.0000000000,199.0000000000,18.0000000000
1717675288278,33.0000000000,163.0000000000,198.0000000000,541.0000000000,198.0000000000,18.0000000000
1717675288278,34.0000000000,163.0000000000,196.0000000000,536.0000000000,196.0000000000,18.0000000000
1717675288325,33.0000000000,161.0000000000,195.0000000000,531.0000000000,195.0000000000,18.0000000000
1717675288326,33.0000000000,161.0000000000,193.0000000000,527.0000000000,193.0000000000,18.0000000000
1717675288327,33.0000000000,159.0000000000,193.0000000000,521.0000000000,192.0000000000,18.0000000000
1717675288327,32.0000000000,159.0000000000,192.0000000000,518.0000000000,192.0000000000,17.0000000000
1717675288327,32.0000000000,158.0000000000,191.0000000000,513.0000000000,191.0000000000,17.0000000000
1717675288328,31.0000000000,156.0000000000,190.0000000000,508.0000000000,189.0000000000,17.0000000000
1717675288329,31.0000000000,156.0000000000,189.0000000000,504.0000000000,188.0000000000,17.0000000000
1717675288330,31.0000000000,155.0000000000,188.0000000000,499.0000000000,187.0000000000,17.0000000000
1717675288331,31.0000000000,153.0000000000,187.0000000000,496.0000000000,185.0000000000,17.0000000000
1717675288332,31.0000000000,152.0000000000,186.0000000000,492.0000000000,184.0000000000,17.0000000000
1717675288332,31.0000000000,152.0000000000,184.0000000000,487.0000000000,184.0000000000,17.0000000000
1717675288333,31.0000000000,150.0000000000,184.0000000000,484.0000000000,183.0000000000,17.0000000000
1717675288333,31.0000000000,150.0000000000,183.0000000000,480.0000000000,182.0000000000,16.0000000000
1717675288333,31.0000000000,149.0000000000,182.0000000000,476.0000000000,180.0000000000,16.0000000000
1717675288333,31.0000000000,148.0000000000,180.0000000000,472.0000000000,179.0000000000,16.0000000000
1717675288334,30.0000000000,147.0000000000,180.0000000000,468.0000000000,178.0000000000,16.0000000000
1717675288334,30.0000000000,146.0000000000,179.0000000000,465.0000000000,177.0000000000,15.0000000000
1717675288334,30.0000000000,145.0000000000,177.0000000000,462.0000000000,176.0000000000,15.0000000000
1717675288334,30.0000000000,143.0000000000,177.0000000000,457.0000000000,176.0000000000,15.0000000000
1717675288334,30.0000000000,143.0000000000,176.0000000000,454.0000000000,174.0000000000,15.0000000000
1717675288334,30.0000000000,143.0000000000,175.0000000000,450.0000000000,173.0000000000,15.0000000000
1717675288334,29.0000000000,142.0000000000,174.0000000000,448.0000000000,172.0000000000,15.0000000000
1717675288335,29.0000000000,141.0000000000,174.0000000000,444.0000000000,171.0000000000,15.0000000000
1717675288335,28.0000000000,140.0000000000,172.0000000000,440.0000000000,170.0000000000,15.0000000000
1717675288335,28.0000000000,139.0000000000,171.0000000000,436.0000000000,169.0000000000,15.0000000000
1717675288335,28.0000000000,139.0000000000,171.0000000000,433.0000000000,167.0000000000,15.0000000000
1717675288335,28.0000000000,137.0000000000,169.0000000000,431.0000000000,167.0000000000,15.0000000000
1717675288335,28.0000000000,137.0000000000,168.0000000000,428.0000000000,167.0000000000,14.0000000000
1717675288335,28.0000000000,135.0000000000,167.0000000000,423.0000000000,166.0000000000,15.0000000000
1717675288366,28.0000000000,135.0000000000,167.0000000000,446.0000000000,164.0000000000,15.0000000000
1717675288367,27.0000000000,135.0000000000,166.0000000000,440.0000000000,163.0000000000,14.0000000000
1717675288367,27.0000000000,134.0000000000,165.0000000000,436.0000000000,163.0000000000,15.0000000000
1717675288367,27.0000000000,134.0000000000,164.0000000000,432.0000000000,161.0000000000,15.0000000000
1717675288367,27.0000000000,132.0000000000,163.0000000000,428.0000000000,160.0000000000,14.0000000000
1717675288367,27.0000000000,131.0000000000,163.0000000000,424.0000000000,159.0000000000,14.0000000000
1717675288368,27.0000000000,131.0000000000,162.0000000000,422.0000000000,159.0000000000,14.0000000000
1717675288368,26.0000000000,130.0000000000,161.0000000000,418.0000000000,158.0000000000,14.0000000000
1717675288368,25.0000000000,129.0000000000,159.0000000000,415.0000000000,157.0000000000,14.0000000000
1717675288368,26.0000000000,129.0000000000,159.0000000000,412.0000000000,156.0000000000,14.0000000000
1717675288368,26.0000000000,127.0000000000,159.0000000000,409.0000000000,156.0000000000,13.0000000000
1717675288368,25.0000000000,127.0000000000,157.0000000000,406.0000000000,155.0000000000,13.0000000000
1717675288369,26.0000000000,127.0000000000,166.0000000000,499.0000000000,153.0000000000,14.0000000000
1717675288369,26.0000000000,126.0000000000,165.0000000000,494.0000000000,153.0000000000,13.0000000000
1717675288369,25.0000000000,125.0000000000,164.0000000000,534.0000000000,152.0000000000,13.0000000000
1717675288369,25.0000000000,124.0000000000,163.0000000000,528.0000000000,151.0000000000,13.0000000000
1717675288370,25.0000000000,124.0000000000,162.0000000000,523.0000000000,150.0000000000,13.0000000000
1717675288370,25.0000000000,123.0000000000,161.0000000000,518.0000000000,149.0000000000,13.0000000000
1717675288370,25.0000000000,122.0000000000,159.0000000000,512.0000000000,148.0000000000,12.0000000000
1717675288385,24.0000000000,121.0000000000,159.0000000000,507.0000000000,147.0000000000,12.0000000000
1717675288385,24.0000000000,120.0000000000,158.0000000000,502.0000000000,147.0000000000,12.0000000000
1717675288386,24.0000000000,120.0000000000,157.0000000000,497.0000000000,146.0000000000,12.0000000000
1717675288386,24.0000000000,120.0000000000,156.0000000000,492.0000000000,145.0000000000,12.0000000000
1717675288386,24.0000000000,119.0000000000,155.0000000000,511.0000000000,143.0000000000,16.0000000000
1717675288386,29.0000000000,118.0000000000,153.0000000000,506.0000000000,143.0000000000,16.0000000000
1717675288387,29.0000000000,118.0000000000,153.0000000000,502.0000000000,143.0000000000,15.0000000000
1717675288387,28.0000000000,117.0000000000,152.0000000000,550.0000000000,142.0000000000,15.0000000000
1717675288409,28.0000000000,116.0000000000,152.0000000000,543.0000000000,142.0000000000,15.0000000000
1717675288411,28.0000000000,115.0000000000,151.0000000000,537.0000000000,140.0000000000,15.0000000000
1717675288412,28.0000000000,115.0000000000,150.0000000000,531.0000000000,140.0000000000,15.0000000000
1717675288413,28.0000000000,114.0000000000,150.0000000000,526.0000000000,139.0000000000,15.0000000000
1717675288414,28.0000000000,113.0000000000,148.0000000000,521.0000000000,138.0000000000,15.0000000000
1717675288414,27.0000000000,113.0000000000,147.0000000000,515.0000000000,137.0000000000,15.0000000000
1717675288416,27.0000000000,112.0000000000,147.0000000000,511.0000000000,136.0000000000,15.0000000000
1717675288416,27.0000000000,112.0000000000,147.0000000000,505.0000000000,187.0000000000,15.0000000000
1717675288417,27.0000000000,111.0000000000,145.0000000000,501.0000000000,185.0000000000,15.0000000000
1717675288417,26.0000000000,110.0000000000,145.0000000000,496.0000000000,184.0000000000,15.0000000000
1717675288418,27.0000000000,110.0000000000,144.0000000000,492.0000000000,182.0000000000,15.0000000000
1717675288418,27.0000000000,109.0000000000,143.0000000000,487.0000000000,180.0000000000,15.0000000000
1717675288419,26.0000000000,108.0000000000,143.0000000000,483.0000000000,179.0000000000,15.0000000000
1717675288419,26.0000000000,108.0000000000,142.0000000000,480.0000000000,178.0000000000,15.0000000000
1717675288419,25.0000000000,108.0000000000,140.0000000000,475.0000000000,177.0000000000,14.0000000000
1717675288420,25.0000000000,107.0000000000,140.0000000000,471.0000000000,176.0000000000,14.0000000000
1717675288420,25.0000000000,107.0000000000,140.0000000000,467.0000000000,175.0000000000,14.0000000000
1717675288435,25.0000000000,105.0000000000,139.0000000000,463.0000000000,174.0000000000,14.0000000000
1717675288435,25.0000000000,104.0000000000,138.0000000000,459.0000000000,172.0000000000,14.0000000000
1717675288435,25.0000000000,104.0000000000,137.0000000000,455.0000000000,171.0000000000,14.0000000000
1717675288435,24.0000000000,103.0000000000,137.0000000000,451.0000000000,170.0000000000,14.0000000000
1717675288436,24.0000000000,103.0000000000,135.0000000000,448.0000000000,169.0000000000,13.0000000000
1717675288436,24.0000000000,103.0000000000,135.0000000000,443.0000000000,167.0000000000,14.0000000000
1717675288436,24.0000000000,102.0000000000,135.0000000000,440.0000000000,167.0000000000,14.0000000000
1717675288436,24.0000000000,102.0000000000,134.0000000000,435.0000000000,166.0000000000,13.0000000000
1717675288448,24.0000000000,101.0000000000,134.0000000000,433.0000000000,164.0000000000,13.0000000000
1717675288448,24.0000000000,100.0000000000,132.0000000000,430.0000000000,163.0000000000,13.0000000000
1717675288449,24.0000000000,100.0000000000,131.0000000000,425.0000000000,162.0000000000,13.0000000000
1717675288449,24.0000000000,99.0000000000,131.0000000000,423.0000000000,161.0000000000,13.0000000000
1717675288449,24.0000000000,99.0000000000,130.0000000000,419.0000000000,160.0000000000,12.0000000000
1717675288449,24.0000000000,99.0000000000,130.0000000000,415.0000000000,214.0000000000,12.0000000000
1717675288449,23.0000000000,98.0000000000,129.0000000000,413.0000000000,211.0000000000,12.0000000000
1717675288460,23.0000000000,97.0000000000,128.0000000000,409.0000000000,211.0000000000,12.0000000000
1717675288462,23.0000000000,96.0000000000,127.0000000000,462.0000000000,209.0000000000,12.0000000000
1717675288462,23.0000000000,96.0000000000,129.0000000000,457.0000000000,207.0000000000,12.0000000000
1717675288462,23.0000000000,96.0000000000,127.0000000000,454.0000000000,206.0000000000,12.0000000000
1717675288462,22.0000000000,95.0000000000,127.0000000000,449.0000000000,204.0000000000,12.0000000000
1717675288462,23.0000000000,95.0000000000,127.0000000000,445.0000000000,204.0000000000,12.0000000000
1717675288474,22.0000000000,94.0000000000,126.0000000000,441.0000000000,201.0000000000,12.0000000000
1717675288475,22.0000000000,94.0000000000,125.0000000000,438.0000000000,229.0000000000,12.0000000000
1717675288475,22.0000000000,93.0000000000,126.0000000000,454.0000000000,226.0000000000,12.0000000000
1717675288475,22.0000000000,93.0000000000,126.0000000000,449.0000000000,224.0000000000,12.0000000000
1717675288475,22.0000000000,92.0000000000,125.0000000000,445.0000000000,223.0000000000,12.0000000000
1717675288475,22.0000000000,92.0000000000,124.0000000000,441.0000000000,221.0000000000,12.0000000000
1717675288475,22.0000000000,92.0000000000,124.0000000000,438.0000000000,219.0000000000,12.0000000000
1717675288475,21.0000000000,91.0000000000,123.0000000000,433.0000000000,218.0000000000,11.0000000000
1717675288475,21.0000000000,91.0000000000,123.0000000000,430.0000000000,216.0000000000,11.0000000000
1717675288487,20.0000000000,90.0000000000,121.0000000000,426.0000000000,216.0000000000,12.0000000000
1717675288488,20.0000000000,89.0000000000,121.0000000000,423.0000000000,214.0000000000,11.0000000000
1717675288488,20.0000000000,89.0000000000,120.0000000000,419.0000000000,212.0000000000,11.0000000000
1717675288488,20.0000000000,88.0000000000,120.0000000000,415.0000000000,211.0000000000,11.0000000000
1717675288488,20.0000000000,88.0000000000,120.0000000000,412.0000000000,209.0000000000,11.0000000000
1717675288489,20.0000000000,88.0000000000,120.0000000000,409.0000000000,208.0000000000,11.0000000000
1717675288489,20.0000000000,88.0000000000,118.0000000000,407.0000000000,207.0000000000,10.0000000000
1717675288502,19.0000000000,87.0000000000,118.0000000000,403.0000000000,206.0000000000,11.0000000000
1717675288502,19.0000000000,86.0000000000,118.0000000000,399.0000000000,204.0000000000,11.0000000000
1717675288502,19.0000000000,86.0000000000,116.0000000000,398.0000000000,203.0000000000,11.0000000000
1717675288502,19.0000000000,86.0000000000,115.0000000000,395.0000000000,201.0000000000,11.0000000000
1717675288502,19.0000000000,85.0000000000,115.0000000000,391.0000000000,199.0000000000,10.0000000000
1717675288503,19.0000000000,84.0000000000,115.0000000000,390.0000000000,199.0000000000,11.0000000000
1717675288515,19.0000000000,84.0000000000,114.0000000000,387.0000000000,198.0000000000,11.0000000000
1717675288516,19.0000000000,83.0000000000,114.0000000000,384.0000000000,196.0000000000,11.0000000000
1717675288516,19.0000000000,83.0000000000,113.0000000000,382.0000000000,195.0000000000,10.0000000000
1717675288516,19.0000000000,83.0000000000,112.0000000000,379.0000000000,195.0000000000,9.0000000000
1717675288516,18.0000000000,82.0000000000,112.0000000000,377.0000000000,193.0000000000,10.0000000000
1717675288516,19.0000000000,81.0000000000,111.0000000000,374.0000000000,192.0000000000,9.0000000000
1717675288516,18.0000000000,81.0000000000,111.0000000000,371.0000000000,191.0000000000,11.0000000000
1717675288517,19.0000000000,81.0000000000,111.0000000000,369.0000000000,190.0000000000,10.0000000000
1717675288517,19.0000000000,81.0000000000,110.0000000000,368.0000000000,188.0000000000,11.0000000000
1717675288530,21.0000000000,79.0000000000,110.0000000000,365.0000000000,188.0000000000,10.0000000000
1717675288530,21.0000000000,79.0000000000,109.0000000000,363.0000000000,187.0000000000,10.0000000000
1717675288531,21.0000000000,79.0000000000,108.0000000000,361.0000000000,185.0000000000,10.0000000000
1717675288531,20.0000000000,79.0000000000,108.0000000000,380.0000000000,184.0000000000,10.0000000000
1717675288531,21.0000000000,79.0000000000,108.0000000000,377.0000000000,184.0000000000,10.0000000000
1717675288531,20.0000000000,78.0000000000,107.0000000000,374.0000000000,182.0000000000,9.0000000000
1717675288531,20.0000000000,78.0000000000,106.0000000000,371.0000000000,181.0000000000,9.0000000000
1717675288542,19.0000000000,77.0000000000,105.0000000000,368.0000000000,179.0000000000,9.0000000000
1717675288543,20.0000000000,77.0000000000,105.0000000000,366.0000000000,179.0000000000,10.0000000000
1717675288543,20.0000000000,76.0000000000,105.0000000000,363.0000000000,177.0000000000,9.0000000000
1717675288543,19.0000000000,76.0000000000,110.0000000000,359.0000000000,177.0000000000,9.0000000000
1717675288543,20.0000000000,76.0000000000,108.0000000000,358.0000000000,176.0000000000,9.0000000000
1717675288543,19.0000000000,76.0000000000,109.0000000000,355.0000000000,175.0000000000,9.0000000000
1717675288543,19.0000000000,75.0000000000,108.0000000000,353.0000000000,174.0000000000,9.0000000000
1717675288557,19.0000000000,75.0000000000,107.0000000000,352.0000000000,173.0000000000,9.0000000000
1717675288558,19.0000000000,75.0000000000,107.0000000000,349.0000000000,172.0000000000,9.0000000000
1717675288559,19.0000000000,74.0000000000,106.0000000000,347.0000000000,171.0000000000,9.0000000000
1717675288559,19.0000000000,73.0000000000,105.0000000000,344.0000000000,169.0000000000,9.0000000000
1717675288559,19.0000000000,73.0000000000,105.0000000000,377.0000000000,168.0000000000,9.0000000000
1717675288559,19.0000000000,72.0000000000,103.0000000000,412.0000000000,167.0000000000,9.0000000000
1717675288560,19.0000000000,72.0000000000,103.0000000000,408.0000000000,167.0000000000,9.0000000000
1717675288560,19.0000000000,72.0000000000,103.0000000000,404.0000000000,166.0000000000,9.0000000000
1717675288560,24.0000000000,71.0000000000,103.0000000000,401.0000000000,166.0000000000,10.0000000000
1717675288582,24.0000000000,71.0000000000,102.0000000000,448.0000000000,164.0000000000,10.0000000000
1717675288582,24.0000000000,71.0000000000,102.0000000000,444.0000000000,163.0000000000,10.0000000000
1717675288582,24.0000000000,71.0000000000,101.0000000000,440.0000000000,163.0000000000,10.0000000000
1717675288582,24.0000000000,71.0000000000,100.0000000000,435.0000000000,161.0000000000,9.0000000000
1717675288583,24.0000000000,70.0000000000,100.0000000000,432.0000000000,161.0000000000,10.0000000000
1717675288583,24.0000000000,70.0000000000,99.0000000000,428.0000000000,159.0000000000,9.0000000000
1717675288583,23.0000000000,69.0000000000,99.0000000000,425.0000000000,159.0000000000,9.0000000000
1717675288583,23.0000000000,68.0000000000,99.0000000000,421.0000000000,158.0000000000,9.0000000000
1717675288583,23.0000000000,68.0000000000,98.0000000000,419.0000000000,157.0000000000,9.0000000000
1717675288583,23.0000000000,68.0000000000,98.0000000000,415.0000000000,156.0000000000,9.0000000000
1717675288583,46.0000000000,68.0000000000,97.0000000000,412.0000000000,156.0000000000,11.0000000000
1717675288583,45.0000000000,67.0000000000,97.0000000000,408.0000000000,155.0000000000,10.0000000000
1717675288583,45.0000000000,67.0000000000,96.0000000000,407.0000000000,154.0000000000,10.0000000000
1717675288584,44.0000000000,67.0000000000,96.0000000000,403.0000000000,153.0000000000,10.0000000000
1717675288600,44.0000000000,67.0000000000,96.0000000000,434.0000000000,152.0000000000,9.0000000000
1717675288602,44.0000000000,66.0000000000,95.0000000000,429.0000000000,152.0000000000,9.0000000000
1717675288602,44.0000000000,66.0000000000,95.0000000000,426.0000000000,152.0000000000,9.0000000000
1717675288602,43.0000000000,65.0000000000,95.0000000000,422.0000000000,151.0000000000,9.0000000000
1717675288602,43.0000000000,65.0000000000,94.0000000000,419.0000000000,150.0000000000,9.0000000000
1717675288603,43.0000000000,65.0000000000,94.0000000000,415.0000000000,149.0000000000,9.0000000000
1717675288603,43.0000000000,65.0000000000,93.0000000000,412.0000000000,148.0000000000,9.0000000000
1717675288603,42.0000000000,64.0000000000,93.0000000000,409.0000000000,147.0000000000,9.0000000000
1717675288603,41.0000000000,63.0000000000,92.0000000000,407.0000000000,147.0000000000,9.0000000000
1717675288604,41.0000000000,63.0000000000,92.0000000000,403.0000000000,146.0000000000,9.0000000000
1717675288604,41.0000000000,63.0000000000,92.0000000000,399.0000000000,145.0000000000,9.0000000000
1717675288604,41.0000000000,63.0000000000,92.0000000000,398.0000000000,144.0000000000,9.0000000000
1717675288621,40.0000000000,63.0000000000,91.0000000000,396.0000000000,143.0000000000,9.0000000000
1717675288622,39.0000000000,63.0000000000,91.0000000000,391.0000000000,143.0000000000,9.0000000000
1717675288622,39.0000000000,63.0000000000,90.0000000000,390.0000000000,143.0000000000,9.0000000000
1717675288622,39.0000000000,62.0000000000,90.0000000000,386.0000000000,142.0000000000,8.0000000000
1717675288622,39.0000000000,62.0000000000,89.0000000000,384.0000000000,140.0000000000,8.0000000000
1717675288622,39.0000000000,62.0000000000,89.0000000000,415.0000000000,140.0000000000,8.0000000000
1717675288623,39.0000000000,61.0000000000,88.0000000000,412.0000000000,140.0000000000,9.0000000000
1717675288623,39.0000000000,61.0000000000,88.0000000000,408.0000000000,139.0000000000,7.0000000000
1717675288623,39.0000000000,61.0000000000,88.0000000000,404.0000000000,138.0000000000,8.0000000000
1717675288624,39.0000000000,60.0000000000,88.0000000000,402.0000000000,137.0000000000,7.0000000000
1717675288624,38.0000000000,60.0000000000,88.0000000000,399.0000000000,137.0000000000,7.0000000000
1717675288624,38.0000000000,60.0000000000,87.0000000000,396.0000000000,135.0000000000,8.0000000000
1717675288643,38.0000000000,60.0000000000,87.0000000000,393.0000000000,135.0000000000,7.0000000000
1717675288643,37.0000000000,59.0000000000,86.0000000000,390.0000000000,135.0000000000,8.0000000000
1717675288643,38.0000000000,59.0000000000,85.0000000000,387.0000000000,134.0000000000,7.0000000000
1717675288643,37.0000000000,59.0000000000,85.0000000000,384.0000000000,134.0000000000,7.0000000000
1717675288644,36.0000000000,59.0000000000,84.0000000000,382.0000000000,133.0000000000,8.0000000000
1717675288644,36.0000000000,58.0000000000,84.0000000000,379.0000000000,132.0000000000,7.0000000000
1717675288644,36.0000000000,57.0000000000,83.0000000000,376.0000000000,131.0000000000,7.0000000000
1717675288644,35.0000000000,58.0000000000,84.0000000000,374.0000000000,131.0000000000,7.0000000000
1717675288644,35.0000000000,57.0000000000,83.0000000000,371.0000000000,143.0000000000,7.0000000000
1717675288644,35.0000000000,57.0000000000,83.0000000000,369.0000000000,143.0000000000,7.0000000000
1717675288644,35.0000000000,56.0000000000,82.0000000000,422.0000000000,143.0000000000,7.0000000000
1717675288644,35.0000000000,56.0000000000,82.0000000000,455.0000000000,179.0000000000,7.0000000000
1717675288658,35.0000000000,56.0000000000,81.0000000000,450.0000000000,215.0000000000,7.0000000000
1717675288658,35.0000000000,56.0000000000,81.0000000000,447.0000000000,213.0000000000,7.0000000000
1717675288658,35.0000000000,56.0000000000,81.0000000000,460.0000000000,211.0000000000,7.0000000000
1717675288658,34.0000000000,56.0000000000,80.0000000000,455.0000000000,209.0000000000,7.0000000000
1717675288659,35.0000000000,55.0000000000,80.0000000000,451.0000000000,208.0000000000,7.0000000000
1717675288659,34.0000000000,55.0000000000,80.0000000000,448.0000000000,207.0000000000,7.0000000000
1717675288659,34.0000000000,55.0000000000,79.0000000000,444.0000000000,206.0000000000,7.0000000000
1717675288695,33.0000000000,54.0000000000,124.0000000000,440.0000000000,205.0000000000,7.0000000000
1717675288696,33.0000000000,54.0000000000,123.0000000000,437.0000000000,203.0000000000,7.0000000000
1717675288696,33.0000000000,54.0000000000,121.0000000000,433.0000000000,201.0000000000,7.0000000000
1717675288697,33.0000000000,54.0000000000,121.0000000000,430.0000000000,200.0000000000,7.0000000000
1717675288697,32.0000000000,53.0000000000,120.0000000000,426.0000000000,199.0000000000,7.0000000000
1717675288697,33.0000000000,54.0000000000,120.0000000000,423.0000000000,198.0000000000,7.0000000000
1717675288697,31.0000000000,52.0000000000,119.0000000000,419.0000000000,197.0000000000,7.0000000000
1717675288698,31.0000000000,52.0000000000,118.0000000000,415.0000000000,195.0000000000,7.0000000000
1717675288698,31.0000000000,52.0000000000,118.0000000000,414.0000000000,194.0000000000,7.0000000000
1717675288698,31.0000000000,52.0000000000,116.0000000000,409.0000000000,193.0000000000,7.0000000000
1717675288698,31.0000000000,51.0000000000,115.0000000000,407.0000000000,192.0000000000,7.0000000000
1717675288698,31.0000000000,51.0000000000,115.0000000000,403.0000000000,191.0000000000,7.0000000000
1717675288699,31.0000000000,51.0000000000,115.0000000000,399.0000000000,190.0000000000,7.0000000000
1717675288699,31.0000000000,51.0000000000,113.0000000000,398.0000000000,189.0000000000,7.0000000000
1717675288699,31.0000000000,51.0000000000,113.0000000000,395.0000000000,188.0000000000,7.0000000000
1717675288699,31.0000000000,50.0000000000,112.0000000000,391.0000000000,187.0000000000,7.0000000000
1717675288700,30.0000000000,50.0000000000,112.0000000000,388.0000000000,185.0000000000,7.0000000000
1717675288700,30.0000000000,50.0000000000,111.0000000000,385.0000000000,184.0000000000,7.0000000000
1717675288700,30.0000000000,49.0000000000,111.0000000000,463.0000000000,184.0000000000,7.0000000000
1717675288700,29.0000000000,49.0000000000,110.0000000000,511.0000000000,183.0000000000,6.0000000000
1717675288701,30.0000000000,49.0000000000,109.0000000000,506.0000000000,181.0000000000,7.0000000000
1717675288701,30.0000000000,49.0000000000,108.0000000000,501.0000000000,180.0000000000,6.0000000000
1717675288701,29.0000000000,49.0000000000,108.0000000000,496.0000000000,179.0000000000,6.0000000000
1717675288702,29.0000000000,48.0000000000,107.0000000000,492.0000000000,178.0000000000,7.0000000000
1717675288702,29.0000000000,48.0000000000,107.0000000000,487.0000000000,177.0000000000,6.0000000000
1717675288718,29.0000000000,48.0000000000,106.0000000000,484.0000000000,176.0000000000,6.0000000000
1717675288719,29.0000000000,48.0000000000,105.0000000000,480.0000000000,175.0000000000,6.0000000000
1717675288719,29.0000000000,48.0000000000,105.0000000000,476.0000000000,174.0000000000,6.0000000000
1717675288719,28.0000000000,48.0000000000,103.0000000000,472.0000000000,173.0000000000,6.0000000000
1717675288719,28.0000000000,47.0000000000,103.0000000000,527.0000000000,172.0000000000,6.0000000000
1717675288719,28.0000000000,47.0000000000,103.0000000000,523.0000000000,171.0000000000,6.0000000000
1717675288719,28.0000000000,47.0000000000,103.0000000000,517.0000000000,170.0000000000,6.0000000000
1717675288719,28.0000000000,47.0000000000,102.0000000000,513.0000000000,169.0000000000,6.0000000000
1717675288720,28.0000000000,46.0000000000,102.0000000000,508.0000000000,167.0000000000,7.0000000000
1717675288733,27.0000000000,46.0000000000,102.0000000000,504.0000000000,167.0000000000,6.0000000000
1717675288734,27.0000000000,46.0000000000,100.0000000000,499.0000000000,166.0000000000,6.0000000000
1717675288734,27.0000000000,46.0000000000,100.0000000000,495.0000000000,166.0000000000,6.0000000000
1717675288734,27.0000000000,45.0000000000,99.0000000000,491.0000000000,164.0000000000,6.0000000000
1717675288735,27.0000000000,45.0000000000,99.0000000000,487.0000000000,163.0000000000,6.0000000000
1717675288735,27.0000000000,45.0000000000,98.0000000000,483.0000000000,163.0000000000,6.0000000000
1717675288735,26.0000000000,45.0000000000,98.0000000000,480.0000000000,161.0000000000,6.0000000000
1717675288735,27.0000000000,44.0000000000,97.0000000000,475.0000000000,161.0000000000,6.0000000000
1717675288735,26.0000000000,44.0000000000,147.0000000000,472.0000000000,159.0000000000,6.0000000000
1717675288735,26.0000000000,44.0000000000,171.0000000000,467.0000000000,159.0000000000,6.0000000000
1717675288749,25.0000000000,44.0000000000,169.0000000000,463.0000000000,159.0000000000,6.0000000000
1717675288750,26.0000000000,44.0000000000,167.0000000000,460.0000000000,158.0000000000,6.0000000000
1717675288750,25.0000000000,44.0000000000,167.0000000000,455.0000000000,157.0000000000,5.0000000000
1717675288750,25.0000000000,44.0000000000,166.0000000000,454.0000000000,156.0000000000,6.0000000000
1717675288750,25.0000000000,43.0000000000,164.0000000000,449.0000000000,156.0000000000,6.0000000000
1717675288750,25.0000000000,43.0000000000,164.0000000000,460.0000000000,154.0000000000,6.0000000000
1717675288750,24.0000000000,43.0000000000,162.0000000000,457.0000000000,153.0000000000,6.0000000000
1717675288750,24.0000000000,43.0000000000,161.0000000000,452.0000000000,152.0000000000,6.0000000000
1717675288751,25.0000000000,42.0000000000,160.0000000000,449.0000000000,152.0000000000,5.0000000000
1717675288763,24.0000000000,41.0000000000,159.0000000000,446.0000000000,151.0000000000,5.0000000000
1717675288764,24.0000000000,41.0000000000,159.0000000000,443.0000000000,150.0000000000,5.0000000000
1717675288765,24.0000000000,41.0000000000,158.0000000000,439.0000000000,149.0000000000,5.0000000000
1717675288765,24.0000000000,41.0000000000,157.0000000000,435.0000000000,148.0000000000,5.0000000000
1717675288765,24.0000000000,41.0000000000,156.0000000000,432.0000000000,147.0000000000,5.0000000000
1717675288765,24.0000000000,40.0000000000,155.0000000000,428.0000000000,147.0000000000,6.0000000000
1717675288766,24.0000000000,40.0000000000,153.0000000000,425.0000000000,149.0000000000,5.0000000000
1717675288766,24.0000000000,40.0000000000,152.0000000000,423.0000000000,150.0000000000,5.0000000000
1717675288766,24.0000000000,39.0000000000,152.0000000000,419.0000000000,148.0000000000,5.0000000000
1717675288792,24.0000000000,39.0000000000,152.0000000000,416.0000000000,147.0000000000,4.0000000000
1717675288793,24.0000000000,39.0000000000,151.0000000000,413.0000000000,147.0000000000,5.0000000000
1717675288793,23.0000000000,39.0000000000,150.0000000000,411.0000000000,145.0000000000,5.0000000000
1717675288793,24.0000000000,39.0000000000,149.0000000000,407.0000000000,145.0000000000,5.0000000000
1717675288794,23.0000000000,39.0000000000,147.0000000000,403.0000000000,143.0000000000,4.0000000000
1717675288794,24.0000000000,39.0000000000,147.0000000000,401.0000000000,143.0000000000,4.0000000000
1717675288794,25.0000000000,39.0000000000,147.0000000000,398.0000000000,143.0000000000,4.0000000000
1717675288795,25.0000000000,39.0000000000,145.0000000000,396.0000000000,142.0000000000,5.0000000000
1717675288796,24.0000000000,39.0000000000,145.0000000000,391.0000000000,141.0000000000,4.0000000000
1717675288796,24.0000000000,38.0000000000,143.0000000000,391.0000000000,140.0000000000,4.0000000000
1717675288796,24.0000000000,38.0000000000,143.0000000000,387.0000000000,139.0000000000,4.0000000000
1717675288797,24.0000000000,38.0000000000,142.0000000000,385.0000000000,139.0000000000,4.0000000000
1717675288797,24.0000000000,38.0000000000,141.0000000000,382.0000000000,167.0000000000,4.0000000000
1717675288797,24.0000000000,37.0000000000,140.0000000000,454.0000000000,166.0000000000,4.0000000000
1717675288797,24.0000000000,37.0000000000,140.0000000000,449.0000000000,164.0000000000,4.0000000000
1717675288798,24.0000000000,38.0000000000,139.0000000000,445.0000000000,164.0000000000,4.0000000000
1717675288823,23.0000000000,37.0000000000,139.0000000000,441.0000000000,163.0000000000,4.0000000000
1717675288825,23.0000000000,37.0000000000,137.0000000000,438.0000000000,161.0000000000,4.0000000000
1717675288826,24.0000000000,36.0000000000,136.0000000000,434.0000000000,161.0000000000,4.0000000000
1717675288826,23.0000000000,36.0000000000,135.0000000000,431.0000000000,159.0000000000,4.0000000000
1717675288827,23.0000000000,35.0000000000,135.0000000000,427.0000000000,159.0000000000,4.0000000000
1717675288827,23.0000000000,36.0000000000,134.0000000000,423.0000000000,158.0000000000,4.0000000000
1717675288827,23.0000000000,35.0000000000,134.0000000000,420.0000000000,157.0000000000,4.0000000000
1717675288828,22.0000000000,35.0000000000,133.0000000000,416.0000000000,156.0000000000,3.0000000000
1717675288828,22.0000000000,35.0000000000,132.0000000000,414.0000000000,155.0000000000,3.0000000000
1717675288828,22.0000000000,35.0000000000,131.0000000000,419.0000000000,154.0000000000,3.0000000000
1717675288828,22.0000000000,35.0000000000,130.0000000000,417.0000000000,153.0000000000,3.0000000000
1717675288829,22.0000000000,35.0000000000,130.0000000000,413.0000000000,152.0000000000,3.0000000000
1717675288829,22.0000000000,35.0000000000,129.0000000000,409.0000000000,151.0000000000,3.0000000000
1717675288829,22.0000000000,35.0000000000,128.0000000000,407.0000000000,150.0000000000,3.0000000000
1717675288830,20.0000000000,34.0000000000,127.0000000000,403.0000000000,150.0000000000,4.0000000000
1717675288830,22.0000000000,33.0000000000,127.0000000000,401.0000000000,148.0000000000,3.0000000000
1717675288830,20.0000000000,34.0000000000,126.0000000000,397.0000000000,147.0000000000,3.0000000000
1717675288830,21.0000000000,34.0000000000,126.0000000000,393.0000000000,184.0000000000,3.0000000000
1717675288849,20.0000000000,33.0000000000,125.0000000000,391.0000000000,182.0000000000,3.0000000000
1717675288850,20.0000000000,33.0000000000,124.0000000000,388.0000000000,180.0000000000,3.0000000000
1717675288850,20.0000000000,33.0000000000,124.0000000000,386.0000000000,179.0000000000,3.0000000000
1717675288850,20.0000000000,33.0000000000,124.0000000000,384.0000000000,178.0000000000,3.0000000000
1717675288851,20.0000000000,33.0000000000,161.0000000000,380.0000000000,176.0000000000,3.0000000000
1717675288851,19.0000000000,32.0000000000,159.0000000000,377.0000000000,176.0000000000,3.0000000000
1717675288851,19.0000000000,33.0000000000,158.0000000000,376.0000000000,174.0000000000,3.0000000000
1717675288851,19.0000000000,31.0000000000,157.0000000000,372.0000000000,173.0000000000,3.0000000000
1717675288851,19.0000000000,32.0000000000,156.0000000000,370.0000000000,172.0000000000,3.0000000000
1717675288852,19.0000000000,31.0000000000,156.0000000000,368.0000000000,172.0000000000,3.0000000000
1717675288852,19.0000000000,31.0000000000,154.0000000000,365.0000000000,170.0000000000,3.0000000000
1717675288852,19.0000000000,31.0000000000,153.0000000000,363.0000000000,169.0000000000,3.0000000000
1717675288852,19.0000000000,31.0000000000,152.0000000000,415.0000000000,167.0000000000,3.0000000000
1717675288853,19.0000000000,31.0000000000,152.0000000000,411.0000000000,167.0000000000,3.0000000000
1717675288872,19.0000000000,31.0000000000,151.0000000000,463.0000000000,166.0000000000,3.0000000000
1717675288874,19.0000000000,31.0000000000,150.0000000000,463.0000000000,166.0000000000,3.0000000000
1717675288875,19.0000000000,31.0000000000,148.0000000000,459.0000000000,164.0000000000,3.0000000000
1717675288875,19.0000000000,31.0000000000,148.0000000000,455.0000000000,163.0000000000,3.0000000000
1717675288875,19.0000000000,31.0000000000,147.0000000000,451.0000000000,162.0000000000,3.0000000000
1717675288876,18.0000000000,31.0000000000,146.0000000000,448.0000000000,161.0000000000,3.0000000000
1717675288876,18.0000000000,31.0000000000,145.0000000000,444.0000000000,159.0000000000,3.0000000000
1717675288876,18.0000000000,30.0000000000,144.0000000000,440.0000000000,159.0000000000,3.0000000000
1717675288877,17.0000000000,30.0000000000,143.0000000000,436.0000000000,158.0000000000,3.0000000000
1717675288878,18.0000000000,30.0000000000,143.0000000000,433.0000000000,157.0000000000,3.0000000000
1717675288879,18.0000000000,30.0000000000,142.0000000000,430.0000000000,156.0000000000,3.0000000000
1717675288879,17.0000000000,30.0000000000,142.0000000000,425.0000000000,156.0000000000,3.0000000000
1717675288880,17.0000000000,29.0000000000,140.0000000000,423.0000000000,155.0000000000,3.0000000000
1717675288881,17.0000000000,29.0000000000,140.0000000000,419.0000000000,153.0000000000,3.0000000000
1717675288881,19.0000000000,29.0000000000,139.0000000000,415.0000000000,152.0000000000,3.0000000000
1717675288881,24.0000000000,30.0000000000,137.0000000000,414.0000000000,152.0000000000,3.0000000000
1717675288894,23.0000000000,28.0000000000,137.0000000000,409.0000000000,151.0000000000,3.0000000000
1717675288895,23.0000000000,29.0000000000,135.0000000000,408.0000000000,150.0000000000,3.0000000000
1717675288895,23.0000000000,29.0000000000,135.0000000000,403.0000000000,150.0000000000,3.0000000000
1717675288896,23.0000000000,28.0000000000,135.0000000000,400.0000000000,148.0000000000,3.0000000000
1717675288896,23.0000000000,28.0000000000,135.0000000000,398.0000000000,147.0000000000,3.0000000000
1717675288896,23.0000000000,28.0000000000,134.0000000000,395.0000000000,147.0000000000,3.0000000000
1717675288896,23.0000000000,28.0000000000,132.0000000000,391.0000000000,146.0000000000,3.0000000000
1717675288911,23.0000000000,28.0000000000,132.0000000000,388.0000000000,145.0000000000,3.0000000000
1717675288912,22.0000000000,28.0000000000,131.0000000000,385.0000000000,144.0000000000,3.0000000000
1717675288913,22.0000000000,28.0000000000,187.0000000000,384.0000000000,143.0000000000,3.0000000000
1717675288913,22.0000000000,28.0000000000,207.0000000000,380.0000000000,143.0000000000,3.0000000000
1717675288913,22.0000000000,27.0000000000,205.0000000000,378.0000000000,142.0000000000,3.0000000000
1717675288913,22.0000000000,28.0000000000,204.0000000000,376.0000000000,141.0000000000,3.0000000000
1717675288913,21.0000000000,28.0000000000,203.0000000000,373.0000000000,140.0000000000,3.0000000000
1717675288914,21.0000000000,27.0000000000,201.0000000000,370.0000000000,139.0000000000,3.0000000000
1717675288914,20.0000000000,27.0000000000,199.0000000000,367.0000000000,139.0000000000,3.0000000000
1717675288914,21.0000000000,27.0000000000,198.0000000000,365.0000000000,138.0000000000,3.0000000000
1717675288914,21.0000000000,26.0000000000,198.0000000000,363.0000000000,137.0000000000,2.0000000000
1717675288914,20.0000000000,27.0000000000,195.0000000000,359.0000000000,135.0000000000,3.0000000000
1717675288931,21.0000000000,26.0000000000,194.0000000000,358.0000000000,135.0000000000,3.0000000000
1717675288932,20.0000000000,25.0000000000,194.0000000000,355.0000000000,135.0000000000,3.0000000000
1717675288932,20.0000000000,25.0000000000,192.0000000000,353.0000000000,134.0000000000,3.0000000000
1717675288932,20.0000000000,25.0000000000,192.0000000000,351.0000000000,134.0000000000,2.0000000000
1717675288932,20.0000000000,26.0000000000,190.0000000000,348.0000000000,133.0000000000,3.0000000000
1717675288933,20.0000000000,25.0000000000,189.0000000000,346.0000000000,132.0000000000,3.0000000000
1717675288933,19.0000000000,25.0000000000,188.0000000000,344.0000000000,131.0000000000,2.0000000000
1717675288933,19.0000000000,25.0000000000,186.0000000000,342.0000000000,131.0000000000,3.0000000000
1717675288933,19.0000000000,25.0000000000,185.0000000000,339.0000000000,130.0000000000,3.0000000000
1717675288949,19.0000000000,25.0000000000,184.0000000000,338.0000000000,129.0000000000,3.0000000000
1717675288950,19.0000000000,25.0000000000,184.0000000000,411.0000000000,129.0000000000,2.0000000000
1717675288950,19.0000000000,25.0000000000,183.0000000000,408.0000000000,127.0000000000,2.0000000000
1717675288950,19.0000000000,25.0000000000,180.0000000000,403.0000000000,127.0000000000,2.0000000000
1717675288950,19.0000000000,24.0000000000,180.0000000000,399.0000000000,127.0000000000,3.0000000000
1717675288951,19.0000000000,24.0000000000,179.0000000000,398.0000000000,126.0000000000,2.0000000000
1717675288951,19.0000000000,24.0000000000,178.0000000000,393.0000000000,126.0000000000,2.0000000000
1717675288951,19.0000000000,24.0000000000,177.0000000000,391.0000000000,125.0000000000,2.0000000000
1717675288951,19.0000000000,24.0000000000,176.0000000000,387.0000000000,124.0000000000,3.0000000000
1717675288951,19.0000000000,24.0000000000,175.0000000000,384.0000000000,124.0000000000,2.0000000000
1717675288952,18.0000000000,24.0000000000,174.0000000000,382.0000000000,123.0000000000,2.0000000000
1717675289028,18.0000000000,24.0000000000,173.0000000000,379.0000000000,123.0000000000,2.0000000000
1717675289031,18.0000000000,24.0000000000,172.0000000000,376.0000000000,121.0000000000,2.0000000000
1717675289031,19.0000000000,24.0000000000,172.0000000000,374.0000000000,121.0000000000,11.0000000000
1717675289032,28.0000000000,24.0000000000,170.0000000000,371.0000000000,120.0000000000,11.0000000000
1717675289033,28.0000000000,24.0000000000,169.0000000000,368.0000000000,120.0000000000,10.0000000000
1717675289034,27.0000000000,23.0000000000,167.0000000000,366.0000000000,120.0000000000,9.0000000000
1717675289034,27.0000000000,23.0000000000,167.0000000000,362.0000000000,120.0000000000,10.0000000000
1717675289035,27.0000000000,23.0000000000,166.0000000000,417.0000000000,118.0000000000,10.0000000000
1717675289036,27.0000000000,23.0000000000,166.0000000000,414.0000000000,118.0000000000,10.0000000000
1717675289036,26.0000000000,23.0000000000,164.0000000000,409.0000000000,116.0000000000,10.0000000000
1717675289037,27.0000000000,23.0000000000,163.0000000000,406.0000000000,116.0000000000,10.0000000000
1717675289037,25.0000000000,23.0000000000,163.0000000000,402.0000000000,115.0000000000,9.0000000000
1717675289038,26.0000000000,23.0000000000,161.0000000000,399.0000000000,115.0000000000,9.0000000000
1717675289039,27.0000000000,23.0000000000,161.0000000000,523.0000000000,115.0000000000,9.0000000000
1717675289040,27.0000000000,22.0000000000,159.0000000000,518.0000000000,114.0000000000,9.0000000000
1717675289041,27.0000000000,22.0000000000,159.0000000000,511.0000000000,113.0000000000,9.0000000000
1717675289041,27.0000000000,22.0000000000,158.0000000000,506.0000000000,113.0000000000,9.0000000000
1717675289042,27.0000000000,25.0000000000,167.0000000000,622.0000000000,169.0000000000,9.0000000000
1717675289042,26.0000000000,27.0000000000,167.0000000000,611.0000000000,167.0000000000,9.0000000000
1717675289043,25.0000000000,27.0000000000,166.0000000000,606.0000000000,167.0000000000,9.0000000000
1717675289043,25.0000000000,26.0000000000,164.0000000000,600.0000000000,166.0000000000,8.0000000000
1717675289057,25.0000000000,27.0000000000,163.0000000000,594.0000000000,164.0000000000,8.0000000000
1717675289057,25.0000000000,26.0000000000,162.0000000000,588.0000000000,163.0000000000,8.0000000000
1717675289057,25.0000000000,26.0000000000,161.0000000000,581.0000000000,163.0000000000,8.0000000000
1717675289058,25.0000000000,25.0000000000,160.0000000000,575.0000000000,161.0000000000,8.0000000000
1717675289058,24.0000000000,25.0000000000,159.0000000000,570.0000000000,159.0000000000,7.0000000000
1717675289058,24.0000000000,25.0000000000,158.0000000000,566.0000000000,159.0000000000,8.0000000000
1717675289058,24.0000000000,25.0000000000,158.0000000000,560.0000000000,159.0000000000,8.0000000000
1717675289059,24.0000000000,25.0000000000,156.0000000000,555.0000000000,158.0000000000,7.0000000000
1717675289059,24.0000000000,25.0000000000,156.0000000000,551.0000000000,156.0000000000,8.0000000000
1717675289061,24.0000000000,24.0000000000,155.0000000000,545.0000000000,155.0000000000,7.0000000000
1717675289062,24.0000000000,25.0000000000,154.0000000000,542.0000000000,155.0000000000,7.0000000000
1717675289062,24.0000000000,24.0000000000,237.0000000000,536.0000000000,153.0000000000,7.0000000000
1717675289063,24.0000000000,24.0000000000,239.0000000000,531.0000000000,152.0000000000,7.0000000000
1717675289064,24.0000000000,24.0000000000,236.0000000000,527.0000000000,152.0000000000,7.0000000000
1717675289064,23.0000000000,24.0000000000,235.0000000000,521.0000000000,151.0000000000,7.0000000000
1717675289064,23.0000000000,24.0000000000,233.0000000000,519.0000000000,150.0000000000,7.0000000000
1717675289064,23.0000000000,24.0000000000,231.0000000000,513.0000000000,149.0000000000,7.0000000000
1717675289065,23.0000000000,24.0000000000,230.0000000000,510.0000000000,147.0000000000,7.0000000000
1717675289065,23.0000000000,24.0000000000,228.0000000000,505.0000000000,147.0000000000,7.0000000000
1717675289065,22.0000000000,24.0000000000,227.0000000000,501.0000000000,147.0000000000,7.0000000000
1717675289065,22.0000000000,24.0000000000,226.0000000000,497.0000000000,145.0000000000,7.0000000000
1717675289066,22.0000000000,23.0000000000,224.0000000000,494.0000000000,144.0000000000,7.0000000000
1717675289066,22.0000000000,23.0000000000,224.0000000000,489.0000000000,143.0000000000,7.0000000000
1717675289066,22.0000000000,23.0000000000,222.0000000000,486.0000000000,143.0000000000,7.0000000000
1717675289066,22.0000000000,23.0000000000,220.0000000000,481.0000000000,142.0000000000,7.0000000000
1717675289067,22.0000000000,23.0000000000,219.0000000000,478.0000000000,141.0000000000,7.0000000000
1717675289067,22.0000000000,23.0000000000,217.0000000000,473.0000000000,140.0000000000,7.0000000000
1717675289067,22.0000000000,22.0000000000,216.0000000000,471.0000000000,140.0000000000,7.0000000000
1717675289067,22.0000000000,22.0000000000,216.0000000000,467.0000000000,139.0000000000,7.0000000000
1717675289068,21.0000000000,22.0000000000,214.0000000000,463.0000000000,139.0000000000,7.0000000000
1717675289068,21.0000000000,22.0000000000,212.0000000000,460.0000000000,137.0000000000,7.0000000000
1717675289068,21.0000000000,22.0000000000,211.0000000000,455.0000000000,135.0000000000,7.0000000000
1717675289068,20.0000000000,22.0000000000,210.0000000000,454.0000000000,135.0000000000,7.0000000000
1717675289069,20.0000000000,22.0000000000,209.0000000000,449.0000000000,135.0000000000,7.0000000000
1717675289069,20.0000000000,22.0000000000,207.0000000000,447.0000000000,135.0000000000,7.0000000000
1717675289069,20.0000000000,22.0000000000,206.0000000000,444.0000000000,134.0000000000,7.0000000000
1717675289069,20.0000000000,21.0000000000,205.0000000000,502.0000000000,133.0000000000,7.0000000000
1717675289069,20.0000000000,21.0000000000,204.0000000000,497.0000000000,132.0000000000,7.0000000000
1717675289070,21.0000000000,20.0000000000,203.0000000000,492.0000000000,131.0000000000,6.0000000000
1717675289070,20.0000000000,20.0000000000,201.0000000000,489.0000000000,130.0000000000,6.0000000000
1717675289070,20.0000000000,20.0000000000,200.0000000000,484.0000000000,129.0000000000,6.0000000000
1717675289071,20.0000000000,20.0000000000,199.0000000000,480.0000000000,129.0000000000,7.0000000000
1717675289071,19.0000000000,20.0000000000,199.0000000000,476.0000000000,127.0000000000,7.0000000000
1717675289071,19.0000000000,20.0000000000,198.0000000000,491.0000000000,127.0000000000,6.0000000000
1717675289071,20.0000000000,20.0000000000,195.0000000000,487.0000000000,127.0000000000,6.0000000000
1717675289102,20.0000000000,20.0000000000,195.0000000000,481.0000000000,127.0000000000,6.0000000000
1717675289103,19.0000000000,20.0000000000,194.0000000000,477.0000000000,126.0000000000,7.0000000000
1717675289103,19.0000000000,19.0000000000,192.0000000000,473.0000000000,125.0000000000,6.0000000000
1717675289103,19.0000000000,19.0000000000,192.0000000000,470.0000000000,124.0000000000,6.0000000000
1717675289104,19.0000000000,20.0000000000,191.0000000000,466.0000000000,124.0000000000,6.0000000000
1717675289104,19.0000000000,20.0000000000,190.0000000000,462.0000000000,123.0000000000,6.0000000000
1717675289104,18.0000000000,20.0000000000,188.0000000000,459.0000000000,122.0000000000,6.0000000000
1717675289104,19.0000000000,19.0000000000,188.0000000000,455.0000000000,121.0000000000,6.0000000000
1717675289105,19.0000000000,19.0000000000,187.0000000000,451.0000000000,120.0000000000,6.0000000000
1717675289105,19.0000000000,20.0000000000,185.0000000000,448.0000000000,120.0000000000,6.0000000000
1717675289105,19.0000000000,19.0000000000,184.0000000000,444.0000000000,120.0000000000,6.0000000000
1717675289105,19.0000000000,19.0000000000,184.0000000000,440.0000000000,119.0000000000,6.0000000000
1717675289106,18.0000000000,19.0000000000,183.0000000000,455.0000000000,119.0000000000,6.0000000000
1717675289106,18.0000000000,19.0000000000,182.0000000000,507.0000000000,118.0000000000,6.0000000000
1717675289106,18.0000000000,19.0000000000,180.0000000000,503.0000000000,117.0000000000,6.0000000000
1717675289107,18.0000000000,19.0000000000,179.0000000000,498.0000000000,116.0000000000,6.0000000000
1717675289107,18.0000000000,19.0000000000,178.0000000000,494.0000000000,115.0000000000,6.0000000000
1717675289107,18.0000000000,19.0000000000,179.0000000000,489.0000000000,115.0000000000,5.0000000000
1717675289107,17.0000000000,19.0000000000,178.0000000000,484.0000000000,115.0000000000,5.0000000000
1717675289108,17.0000000000,19.0000000000,177.0000000000,481.0000000000,114.0000000000,6.0000000000
1717675289108,17.0000000000,19.0000000000,176.0000000000,476.0000000000,113.0000000000,5.0000000000
1717675289129,17.0000000000,18.0000000000,175.0000000000,473.0000000000,134.0000000000,6.0000000000
1717675289132,16.0000000000,18.0000000000,175.0000000000,468.0000000000,163.0000000000,7.0000000000
1717675289132,17.0000000000,18.0000000000,174.0000000000,465.0000000000,160.0000000000,7.0000000000
1717675289133,17.0000000000,18.0000000000,172.0000000000,462.0000000000,159.0000000000,7.0000000000
1717675289133,17.0000000000,18.0000000000,172.0000000000,457.0000000000,159.0000000000,7.0000000000
1717675289133,17.0000000000,18.0000000000,172.0000000000,454.0000000000,157.0000000000,7.0000000000
1717675289134,17.0000000000,18.0000000000,171.0000000000,450.0000000000,156.0000000000,7.0000000000
1717675289134,17.0000000000,18.0000000000,169.0000000000,448.0000000000,156.0000000000,7.0000000000
1717675289135,17.0000000000,18.0000000000,167.0000000000,443.0000000000,155.0000000000,7.0000000000
1717675289136,16.0000000000,17.0000000000,167.0000000000,440.0000000000,153.0000000000,7.0000000000
1717675289137,16.0000000000,19.0000000000,167.0000000000,436.0000000000,152.0000000000,6.0000000000
1717675289138,16.0000000000,21.0000000000,166.0000000000,433.0000000000,152.0000000000,7.0000000000
1717675289138,15.0000000000,22.0000000000,204.0000000000,431.0000000000,151.0000000000,7.0000000000
1717675289138,16.0000000000,20.0000000000,252.0000000000,472.0000000000,150.0000000000,6.0000000000
1717675289139,15.0000000000,21.0000000000,248.0000000000,466.0000000000,148.0000000000,7.0000000000
1717675289139,15.0000000000,21.0000000000,246.0000000000,463.0000000000,147.0000000000,7.0000000000
1717675289139,15.0000000000,20.0000000000,244.0000000000,458.0000000000,147.0000000000,6.0000000000
1717675289139,15.0000000000,20.0000000000,243.0000000000,455.0000000000,146.0000000000,6.0000000000
1717675289154,15.0000000000,20.0000000000,241.0000000000,450.0000000000,145.0000000000,6.0000000000
1717675289155,15.0000000000,20.0000000000,240.0000000000,448.0000000000,144.0000000000,6.0000000000
1717675289156,15.0000000000,20.0000000000,238.0000000000,444.0000000000,184.0000000000,6.0000000000
1717675289156,15.0000000000,20.0000000000,237.0000000000,440.0000000000,214.0000000000,6.0000000000
1717675289156,15.0000000000,20.0000000000,235.0000000000,436.0000000000,211.0000000000,6.0000000000
1717675289157,15.0000000000,19.0000000000,234.0000000000,432.0000000000,210.0000000000,6.0000000000
1717675289157,15.0000000000,19.0000000000,231.0000000000,430.0000000000,208.0000000000,6.0000000000
1717675289157,15.0000000000,19.0000000000,231.0000000000,425.0000000000,207.0000000000,6.0000000000
1717675289157,15.0000000000,19.0000000000,230.0000000000,423.0000000000,206.0000000000,6.0000000000
1717675289190,15.0000000000,19.0000000000,227.0000000000,419.0000000000,204.0000000000,5.0000000000
1717675289191,15.0000000000,19.0000000000,227.0000000000,416.0000000000,203.0000000000,6.0000000000
1717675289192,15.0000000000,19.0000000000,225.0000000000,414.0000000000,201.0000000000,6.0000000000
1717675289192,15.0000000000,19.0000000000,224.0000000000,411.0000000000,201.0000000000,6.0000000000
1717675289192,15.0000000000,19.0000000000,223.0000000000,408.0000000000,199.0000000000,6.0000000000
1717675289192,15.0000000000,19.0000000000,221.0000000000,406.0000000000,198.0000000000,6.0000000000
1717675289193,15.0000000000,19.0000000000,220.0000000000,402.0000000000,197.0000000000,6.0000000000
1717675289193,15.0000000000,19.0000000000,219.0000000000,399.0000000000,196.0000000000,5.0000000000
1717675289193,15.0000000000,19.0000000000,217.0000000000,396.0000000000,195.0000000000,5.0000000000
1717675289193,15.0000000000,19.0000000000,216.0000000000,459.0000000000,193.0000000000,5.0000000000
1717675289194,15.0000000000,19.0000000000,215.0000000000,462.0000000000,192.0000000000,5.0000000000
1717675289194,15.0000000000,19.0000000000,214.0000000000,457.0000000000,192.0000000000,5.0000000000
1717675289194,18.0000000000,18.0000000000,212.0000000000,455.0000000000,190.0000000000,5.0000000000
1717675289195,22.0000000000,19.0000000000,211.0000000000,450.0000000000,189.0000000000,5.0000000000
1717675289195,22.0000000000,18.0000000000,210.0000000000,447.0000000000,188.0000000000,4.0000000000
1717675289195,21.0000000000,18.0000000000,209.0000000000,443.0000000000,187.0000000000,5.0000000000
1717675289196,20.0000000000,18.0000000000,207.0000000000,439.0000000000,185.0000000000,4.0000000000
1717675289196,21.0000000000,18.0000000000,207.0000000000,484.0000000000,243.0000000000,4.0000000000
1717675289196,20.0000000000,20.0000000000,206.0000000000,480.0000000000,242.0000000000,5.0000000000
1717675289197,20.0000000000,20.0000000000,204.0000000000,476.0000000000,240.0000000000,5.0000000000
1717675289197,20.0000000000,20.0000000000,203.0000000000,471.0000000000,239.0000000000,4.0000000000
1717675289197,20.0000000000,20.0000000000,202.0000000000,467.0000000000,236.0000000000,4.0000000000
1717675289198,19.0000000000,19.0000000000,199.0000000000,463.0000000000,235.0000000000,4.0000000000
1717675289224,19.0000000000,19.0000000000,199.0000000000,513.0000000000,233.0000000000,4.0000000000
1717675289225,19.0000000000,19.0000000000,199.0000000000,509.0000000000,231.0000000000,4.0000000000
1717675289226,19.0000000000,19.0000000000,197.0000000000,504.0000000000,231.0000000000,4.0000000000
1717675289226,19.0000000000,19.0000000000,196.0000000000,499.0000000000,230.0000000000,4.0000000000
1717675289226,19.0000000000,19.0000000000,195.0000000000,495.0000000000,227.0000000000,4.0000000000
1717675289226,19.0000000000,19.0000000000,194.0000000000,490.0000000000,227.0000000000,4.0000000000
1717675289226,19.0000000000,19.0000000000,193.0000000000,487.0000000000,225.0000000000,4.0000000000
1717675289226,19.0000000000,18.0000000000,192.0000000000,487.0000000000,224.0000000000,4.0000000000
1717675289227,19.0000000000,19.0000000000,211.0000000000,653.0000000000,222.0000000000,12.0000000000
1717675289227,19.0000000000,19.0000000000,295.0000000000,659.0000000000,220.0000000000,12.0000000000
1717675289227,18.0000000000,18.0000000000,294.0000000000,652.0000000000,220.0000000000,11.0000000000
1717675289227,18.0000000000,17.0000000000,291.0000000000,643.0000000000,218.0000000000,12.0000000000
1717675289227,19.0000000000,17.0000000000,289.0000000000,719.0000000000,216.0000000000,12.0000000000
1717675289227,18.0000000000,18.0000000000,287.0000000000,708.0000000000,215.0000000000,11.0000000000
1717675289228,18.0000000000,18.0000000000,284.0000000000,699.0000000000,214.0000000000,11.0000000000
1717675289228,17.0000000000,18.0000000000,283.0000000000,691.0000000000,212.0000000000,11.0000000000
1717675289251,17.0000000000,18.0000000000,280.0000000000,684.0000000000,211.0000000000,11.0000000000
1717675289251,17.0000000000,17.0000000000,279.0000000000,675.0000000000,209.0000000000,11.0000000000
1717675289252,17.0000000000,18.0000000000,276.0000000000,668.0000000000,208.0000000000,11.0000000000
1717675289252,17.0000000000,18.0000000000,275.0000000000,660.0000000000,207.0000000000,10.0000000000
1717675289252,17.0000000000,17.0000000000,273.0000000000,655.0000000000,206.0000000000,11.0000000000
1717675289252,17.0000000000,17.0000000000,271.0000000000,647.0000000000,205.0000000000,10.0000000000
1717675289253,17.0000000000,17.0000000000,269.0000000000,639.0000000000,204.0000000000,11.0000000000
1717675289253,17.0000000000,17.0000000000,268.0000000000,633.0000000000,203.0000000000,10.0000000000
1717675289253,17.0000000000,16.0000000000,266.0000000000,627.0000000000,200.0000000000,11.0000000000
1717675289254,16.0000000000,16.0000000000,263.0000000000,622.0000000000,199.0000000000,10.0000000000
1717675289254,16.0000000000,17.0000000000,263.0000000000,615.0000000000,198.0000000000,10.0000000000
1717675289254,16.0000000000,17.0000000000,262.0000000000,608.0000000000,198.0000000000,9.0000000000
1717675289255,16.0000000000,16.0000000000,259.0000000000,604.0000000000,196.0000000000,9.0000000000
1717675289255,16.0000000000,16.0000000000,258.0000000000,598.0000000000,195.0000000000,9.0000000000
1717675289255,16.0000000000,16.0000000000,255.0000000000,591.0000000000,193.0000000000,9.0000000000
1717675289256,15.0000000000,16.0000000000,255.0000000000,588.0000000000,192.0000000000,9.0000000000
1717675289277,15.0000000000,16.0000000000,254.0000000000,582.0000000000,192.0000000000,9.0000000000
1717675289278,17.0000000000,16.0000000000,252.0000000000,732.0000000000,191.0000000000,9.0000000000
1717675289278,15.0000000000,16.0000000000,251.0000000000,721.0000000000,190.0000000000,9.0000000000
1717675289278,15.0000000000,15.0000000000,248.0000000000,715.0000000000,188.0000000000,9.0000000000
1717675289278,15.0000000000,15.0000000000,248.0000000000,705.0000000000,188.0000000000,9.0000000000
1717675289279,15.0000000000,15.0000000000,246.0000000000,696.0000000000,187.0000000000,9.0000000000
1717675289279,15.0000000000,15.0000000000,244.0000000000,691.0000000000,185.0000000000,9.0000000000
1717675289279,15.0000000000,15.0000000000,243.0000000000,683.0000000000,184.0000000000,9.0000000000
1717675289279,15.0000000000,15.0000000000,241.0000000000,676.0000000000,184.0000000000,8.0000000000
1717675289279,15.0000000000,15.0000000000,240.0000000000,668.0000000000,183.0000000000,9.0000000000
1717675289279,15.0000000000,15.0000000000,239.0000000000,660.0000000000,182.0000000000,8.0000000000
1717675289280,15.0000000000,15.0000000000,238.0000000000,655.0000000000,180.0000000000,8.0000000000
1717675289280,15.0000000000,15.0000000000,236.0000000000,647.0000000000,179.0000000000,7.0000000000
1717675289297,15.0000000000,15.0000000000,235.0000000000,643.0000000000,178.0000000000,8.0000000000
1717675289298,15.0000000000,15.0000000000,234.0000000000,636.0000000000,177.0000000000,7.0000000000
1717675289299,15.0000000000,15.0000000000,231.0000000000,628.0000000000,176.0000000000,7.0000000000
1717675289299,15.0000000000,17.0000000000,231.0000000000,624.0000000000,175.0000000000,8.0000000000
1717675289299,15.0000000000,17.0000000000,230.0000000000,617.0000000000,174.0000000000,7.0000000000
1717675289299,15.0000000000,16.0000000000,228.0000000000,612.0000000000,174.0000000000,7.0000000000
1717675289300,14.0000000000,17.0000000000,227.0000000000,606.0000000000,172.0000000000,7.0000000000
1717675289300,14.0000000000,16.0000000000,226.0000000000,601.0000000000,172.0000000000,7.0000000000
1717675289300,14.0000000000,16.0000000000,224.0000000000,595.0000000000,171.0000000000,7.0000000000
1717675289300,14.0000000000,16.0000000000,224.0000000000,589.0000000000,169.0000000000,7.0000000000
1717675289301,14.0000000000,16.0000000000,222.0000000000,584.0000000000,167.0000000000,7.0000000000
1717675289301,15.0000000000,16.0000000000,221.0000000000,579.0000000000,167.0000000000,7.0000000000
1717675289318,15.0000000000,15.0000000000,220.0000000000,575.0000000000,167.0000000000,7.0000000000
1717675289319,15.0000000000,15.0000000000,218.0000000000,569.0000000000,167.0000000000,7.0000000000
1717675289320,15.0000000000,16.0000000000,217.0000000000,651.0000000000,228.0000000000,7.0000000000
1717675289320,14.0000000000,16.0000000000,216.0000000000,644.0000000000,227.0000000000,7.0000000000
1717675289320,15.0000000000,15.0000000000,215.0000000000,636.0000000000,225.0000000000,7.0000000000
1717675289320,15.0000000000,15.0000000000,214.0000000000,631.0000000000,235.0000000000,7.0000000000
1717675289321,15.0000000000,15.0000000000,212.0000000000,624.0000000000,233.0000000000,17.0000000000
1717675289321,15.0000000000,15.0000000000,211.0000000000,615.0000000000,231.0000000000,19.0000000000
1717675289321,15.0000000000,15.0000000000,210.0000000000,611.0000000000,229.0000000000,19.0000000000
1717675289322,14.0000000000,15.0000000000,209.0000000000,604.0000000000,227.0000000000,19.0000000000
1717675289322,14.0000000000,15.0000000000,207.0000000000,598.0000000000,227.0000000000,19.0000000000
1717675289356,15.0000000000,15.0000000000,207.0000000000,591.0000000000,225.0000000000,19.0000000000
1717675289357,14.0000000000,15.0000000000,206.0000000000,586.0000000000,223.0000000000,19.0000000000
1717675289357,14.0000000000,15.0000000000,204.0000000000,582.0000000000,222.0000000000,19.0000000000
1717675289357,14.0000000000,15.0000000000,203.0000000000,575.0000000000,220.0000000000,19.0000000000
1717675289357,14.0000000000,15.0000000000,202.0000000000,569.0000000000,219.0000000000,18.0000000000
1717675289358,14.0000000000,15.0000000000,201.0000000000,563.0000000000,217.0000000000,17.0000000000
1717675289358,13.0000000000,15.0000000000,199.0000000000,560.0000000000,216.0000000000,18.0000000000
1717675289358,14.0000000000,15.0000000000,199.0000000000,554.0000000000,215.0000000000,17.0000000000
1717675289358,14.0000000000,14.0000000000,198.0000000000,549.0000000000,213.0000000000,17.0000000000
