timestamp,Channel 1,Channel 2,Channel 3,Channel 4,Channel 5,Channel 6
1717675350927,15.0000000000,0.0000000000,0.0000000000,131.0000000000,67.0000000000,4.0000000000
1717675350928,15.0000000000,0.0000000000,0.0000000000,131.0000000000,67.0000000000,3.0000000000
1717675350928,15.0000000000,0.0000000000,0.0000000000,130.0000000000,67.0000000000,3.0000000000
1717675350929,15.0000000000,0.0000000000,0.0000000000,129.0000000000,66.0000000000,3.0000000000
1717675350929,15.0000000000,0.0000000000,0.0000000000,129.0000000000,66.0000000000,3.0000000000
1717675350929,15.0000000000,0.0000000000,0.0000000000,129.0000000000,65.0000000000,3.0000000000
1717675350929,15.0000000000,0.0000000000,0.0000000000,128.0000000000,65.0000000000,3.0000000000
1717675350930,15.0000000000,0.0000000000,0.0000000000,127.0000000000,65.0000000000,3.0000000000
1717675350930,15.0000000000,0.0000000000,0.0000000000,127.0000000000,64.0000000000,3.0000000000
1717675350930,15.0000000000,0.0000000000,0.0000000000,127.0000000000,63.0000000000,3.0000000000
1717675350931,15.0000000000,0.0000000000,0.0000000000,126.0000000000,63.0000000000,3.0000000000
1717675350931,15.0000000000,0.0000000000,0.0000000000,125.0000000000,63.0000000000,3.0000000000
1717675350931,15.0000000000,0.0000000000,0.0000000000,124.0000000000,63.0000000000,3.0000000000
1717675350931,14.0000000000,0.0000000000,0.0000000000,124.0000000000,63.0000000000,3.0000000000
1717675350932,14.0000000000,0.0000000000,0.0000000000,123.0000000000,63.0000000000,3.0000000000
1717675350932,14.0000000000,0.0000000000,0.0000000000,123.0000000000,63.0000000000,3.0000000000
1717675350932,14.0000000000,0.0000000000,0.0000000000,123.0000000000,63.0000000000,3.0000000000
1717675350933,14.0000000000,0.0000000000,0.0000000000,121.0000000000,62.0000000000,3.0000000000
1717675350933,14.0000000000,0.0000000000,0.0000000000,120.0000000000,62.0000000000,3.0000000000
1717675350953,14.0000000000,0.0000000000,0.0000000000,120.0000000000,62.0000000000,3.0000000000
1717675350956,14.0000000000,0.0000000000,0.0000000000,120.0000000000,62.0000000000,3.0000000000
1717675350957,14.0000000000,0.0000000000,0.0000000000,119.0000000000,61.0000000000,3.0000000000
1717675350957,14.0000000000,0.0000000000,0.0000000000,119.0000000000,61.0000000000,3.0000000000
1717675350958,13.0000000000,0.0000000000,0.0000000000,118.0000000000,60.0000000000,3.0000000000
1717675350959,13.0000000000,0.0000000000,0.0000000000,118.0000000000,60.0000000000,3.0000000000
1717675350959,13.0000000000,0.0000000000,0.0000000000,116.0000000000,60.0000000000,3.0000000000
1717675350959,14.0000000000,0.0000000000,0.0000000000,116.0000000000,60.0000000000,3.0000000000
1717675350959,13.0000000000,0.0000000000,0.0000000000,116.0000000000,60.0000000000,3.0000000000
1717675350960,13.0000000000,0.0000000000,0.0000000000,115.0000000000,59.0000000000,3.0000000000
1717675350960,14.0000000000,0.0000000000,0.0000000000,115.0000000000,59.0000000000,3.0000000000
1717675350960,13.0000000000,0.0000000000,0.0000000000,114.0000000000,59.0000000000,3.0000000000
1717675350960,14.0000000000,0.0000000000,0.0000000000,127.0000000000,58.0000000000,3.0000000000
1717675350960,13.0000000000,0.0000000000,0.0000000000,194.0000000000,57.0000000000,3.0000000000
1717675350961,13.0000000000,0.0000000000,0.0000000000,192.0000000000,57.0000000000,3.0000000000
1717675350961,13.0000000000,0.0000000000,0.0000000000,190.0000000000,57.0000000000,3.0000000000
1717675350961,13.0000000000,0.0000000000,0.0000000000,189.0000000000,57.0000000000,3.0000000000
1717675350961,13.0000000000,0.0000000000,0.0000000000,188.0000000000,57.0000000000,3.0000000000
1717675350961,13.0000000000,0.0000000000,0.0000000000,187.0000000000,57.0000000000,3.0000000000
1717675350962,13.0000000000,0.0000000000,0.0000000000,185.0000000000,56.0000000000,2.0000000000
1717675350978,13.0000000000,0.0000000000,0.0000000000,184.0000000000,56.0000000000,3.0000000000
1717675350978,12.0000000000,0.0000000000,0.0000000000,184.0000000000,56.0000000000,3.0000000000
1717675350979,13.0000000000,0.0000000000,0.0000000000,183.0000000000,56.0000000000,3.0000000000
1717675350979,12.0000000000,0.0000000000,0.0000000000,182.0000000000,56.0000000000,3.0000000000
1717675350979,12.0000000000,0.0000000000,0.0000000000,180.0000000000,56.0000000000,3.0000000000
1717675350979,13.0000000000,0.0000000000,0.0000000000,179.0000000000,55.0000000000,3.0000000000
1717675350979,15.0000000000,0.0000000000,0.0000000000,179.0000000000,55.0000000000,3.0000000000
1717675350979,15.0000000000,0.0000000000,25.0000000000,177.0000000000,54.0000000000,3.0000000000
1717675350979,15.0000000000,0.0000000000,60.0000000000,177.0000000000,54.0000000000,3.0000000000
1717675350979,15.0000000000,0.0000000000,59.0000000000,176.0000000000,54.0000000000,2.0000000000
1717675350979,15.0000000000,0.0000000000,57.0000000000,175.0000000000,54.0000000000,2.0000000000
1717675350979,14.0000000000,0.0000000000,57.0000000000,174.0000000000,54.0000000000,3.0000000000
1717675350980,15.0000000000,0.0000000000,57.0000000000,173.0000000000,52.0000000000,2.0000000000
1717675350980,14.0000000000,0.0000000000,56.0000000000,172.0000000000,52.0000000000,3.0000000000
1717675351000,14.0000000000,0.0000000000,56.0000000000,171.0000000000,52.0000000000,2.0000000000
1717675351000,14.0000000000,0.0000000000,56.0000000000,170.0000000000,51.0000000000,3.0000000000
1717675351001,14.0000000000,0.0000000000,56.0000000000,169.0000000000,52.0000000000,3.0000000000
1717675351001,14.0000000000,0.0000000000,56.0000000000,167.0000000000,51.0000000000,3.0000000000
1717675351001,14.0000000000,0.0000000000,56.0000000000,167.0000000000,51.0000000000,3.0000000000
1717675351001,14.0000000000,0.0000000000,55.0000000000,167.0000000000,51.0000000000,3.0000000000
1717675351002,14.0000000000,0.0000000000,54.0000000000,166.0000000000,51.0000000000,3.0000000000
1717675351002,14.0000000000,0.0000000000,54.0000000000,165.0000000000,51.0000000000,3.0000000000
1717675351002,13.0000000000,0.0000000000,54.0000000000,163.0000000000,50.0000000000,2.0000000000
1717675351002,14.0000000000,0.0000000000,54.0000000000,183.0000000000,51.0000000000,3.0000000000
1717675351003,14.0000000000,0.0000000000,53.0000000000,184.0000000000,50.0000000000,3.0000000000
1717675351003,14.0000000000,0.0000000000,52.0000000000,184.0000000000,49.0000000000,2.0000000000
1717675351003,14.0000000000,0.0000000000,53.0000000000,183.0000000000,50.0000000000,2.0000000000
1717675351018,13.0000000000,0.0000000000,52.0000000000,181.0000000000,49.0000000000,2.0000000000
1717675351019,13.0000000000,0.0000000000,53.0000000000,180.0000000000,49.0000000000,2.0000000000
1717675351019,13.0000000000,0.0000000000,53.0000000000,179.0000000000,49.0000000000,2.0000000000
1717675351019,13.0000000000,0.0000000000,53.0000000000,178.0000000000,48.0000000000,2.0000000000
1717675351019,13.0000000000,0.0000000000,52.0000000000,177.0000000000,48.0000000000,2.0000000000
1717675351019,14.0000000000,0.0000000000,52.0000000000,176.0000000000,48.0000000000,2.0000000000
1717675351020,14.0000000000,0.0000000000,51.0000000000,176.0000000000,48.0000000000,2.0000000000
1717675351020,14.0000000000,0.0000000000,51.0000000000,248.0000000000,48.0000000000,2.0000000000
1717675351020,14.0000000000,0.0000000000,51.0000000000,350.0000000000,49.0000000000,2.0000000000
1717675351020,13.0000000000,0.0000000000,51.0000000000,376.0000000000,49.0000000000,2.0000000000
1717675351020,14.0000000000,0.0000000000,51.0000000000,372.0000000000,48.0000000000,2.0000000000
1717675351021,13.0000000000,0.0000000000,51.0000000000,370.0000000000,48.0000000000,1.0000000000
1717675351021,13.0000000000,0.0000000000,50.0000000000,368.0000000000,48.0000000000,2.0000000000
1717675351021,13.0000000000,0.0000000000,50.0000000000,365.0000000000,112.0000000000,2.0000000000
1717675351038,13.0000000000,0.0000000000,49.0000000000,400.0000000000,110.0000000000,1.0000000000
1717675351039,13.0000000000,0.0000000000,49.0000000000,401.0000000000,109.0000000000,2.0000000000
1717675351039,12.0000000000,0.0000000000,49.0000000000,396.0000000000,108.0000000000,2.0000000000
1717675351040,13.0000000000,0.0000000000,49.0000000000,393.0000000000,108.0000000000,1.0000000000
1717675351040,12.0000000000,0.0000000000,49.0000000000,391.0000000000,107.0000000000,2.0000000000
1717675351040,12.0000000000,0.0000000000,48.0000000000,388.0000000000,109.0000000000,3.0000000000
1717675351040,13.0000000000,0.0000000000,51.0000000000,390.0000000000,108.0000000000,3.0000000000
1717675351040,12.0000000000,0.0000000000,51.0000000000,451.0000000000,108.0000000000,3.0000000000
1717675351041,12.0000000000,0.0000000000,50.0000000000,446.0000000000,107.0000000000,4.0000000000
1717675351041,12.0000000000,0.0000000000,51.0000000000,443.0000000000,106.0000000000,3.0000000000
1717675351042,12.0000000000,0.0000000000,49.0000000000,439.0000000000,105.0000000000,3.0000000000
1717675351042,12.0000000000,0.0000000000,49.0000000000,435.0000000000,105.0000000000,3.0000000000
1717675351059,12.0000000000,0.0000000000,49.0000000000,432.0000000000,105.0000000000,4.0000000000
1717675351060,12.0000000000,0.0000000000,49.0000000000,467.0000000000,103.0000000000,3.0000000000
1717675351060,12.0000000000,0.0000000000,49.0000000000,624.0000000000,103.0000000000,3.0000000000
1717675351060,12.0000000000,0.0000000000,49.0000000000,616.0000000000,103.0000000000,3.0000000000
1717675351060,12.0000000000,0.0000000000,48.0000000000,611.0000000000,103.0000000000,3.0000000000
1717675351060,12.0000000000,0.0000000000,48.0000000000,605.0000000000,102.0000000000,3.0000000000
1717675351061,12.0000000000,0.0000000000,48.0000000000,600.0000000000,101.0000000000,3.0000000000
1717675351061,12.0000000000,0.0000000000,48.0000000000,593.0000000000,100.0000000000,3.0000000000
1717675351061,12.0000000000,0.0000000000,47.0000000000,588.0000000000,100.0000000000,3.0000000000
1717675351061,12.0000000000,0.0000000000,47.0000000000,583.0000000000,99.0000000000,3.0000000000
1717675351061,12.0000000000,0.0000000000,47.0000000000,579.0000000000,99.0000000000,3.0000000000
1717675351061,12.0000000000,0.0000000000,47.0000000000,575.0000000000,108.0000000000,3.0000000000
1717675351062,12.0000000000,0.0000000000,46.0000000000,583.0000000000,108.0000000000,3.0000000000
1717675351077,12.0000000000,0.0000000000,48.0000000000,579.0000000000,108.0000000000,3.0000000000
1717675351079,12.0000000000,0.0000000000,131.0000000000,574.0000000000,107.0000000000,3.0000000000
1717675351080,12.0000000000,0.0000000000,130.0000000000,568.0000000000,105.0000000000,3.0000000000
1717675351080,12.0000000000,0.0000000000,128.0000000000,563.0000000000,105.0000000000,3.0000000000
1717675351081,12.0000000000,0.0000000000,127.0000000000,585.0000000000,103.0000000000,3.0000000000
1717675351081,12.0000000000,0.0000000000,127.0000000000,581.0000000000,103.0000000000,3.0000000000
1717675351082,11.0000000000,0.0000000000,126.0000000000,575.0000000000,103.0000000000,3.0000000000
1717675351082,11.0000000000,0.0000000000,126.0000000000,570.0000000000,103.0000000000,3.0000000000
1717675351083,11.0000000000,0.0000000000,124.0000000000,566.0000000000,103.0000000000,3.0000000000
1717675351083,11.0000000000,0.0000000000,124.0000000000,560.0000000000,102.0000000000,3.0000000000
1717675351084,11.0000000000,0.0000000000,123.0000000000,556.0000000000,102.0000000000,3.0000000000
1717675351084,11.0000000000,0.0000000000,122.0000000000,551.0000000000,101.0000000000,3.0000000000
1717675351101,11.0000000000,0.0000000000,121.0000000000,545.0000000000,100.0000000000,3.0000000000
1717675351102,11.0000000000,0.0000000000,120.0000000000,542.0000000000,99.0000000000,3.0000000000
1717675351102,11.0000000000,0.0000000000,120.0000000000,536.0000000000,99.0000000000,3.0000000000
1717675351102,11.0000000000,0.0000000000,120.0000000000,533.0000000000,99.0000000000,3.0000000000
1717675351102,14.0000000000,0.0000000000,129.0000000000,529.0000000000,97.0000000000,3.0000000000
1717675351102,13.0000000000,0.0000000000,178.0000000000,526.0000000000,97.0000000000,3.0000000000
1717675351103,13.0000000000,0.0000000000,176.0000000000,520.0000000000,97.0000000000,3.0000000000
1717675351103,13.0000000000,7.0000000000,176.0000000000,665.0000000000,203.0000000000,3.0000000000
1717675351103,13.0000000000,35.0000000000,174.0000000000,673.0000000000,205.0000000000,3.0000000000
1717675351103,13.0000000000,35.0000000000,172.0000000000,664.0000000000,204.0000000000,3.0000000000
1717675351103,12.0000000000,35.0000000000,172.0000000000,655.0000000000,201.0000000000,3.0000000000
1717675351103,13.0000000000,35.0000000000,233.0000000000,651.0000000000,199.0000000000,3.0000000000
1717675351119,12.0000000000,35.0000000000,230.0000000000,643.0000000000,199.0000000000,3.0000000000
1717675351120,13.0000000000,78.0000000000,227.0000000000,637.0000000000,197.0000000000,3.0000000000
1717675351120,12.0000000000,78.0000000000,226.0000000000,630.0000000000,196.0000000000,2.0000000000
1717675351120,13.0000000000,77.0000000000,224.0000000000,624.0000000000,195.0000000000,2.0000000000
1717675351120,12.0000000000,76.0000000000,223.0000000000,618.0000000000,193.0000000000,3.0000000000
1717675351121,13.0000000000,76.0000000000,222.0000000000,611.0000000000,192.0000000000,3.0000000000
1717675351121,13.0000000000,75.0000000000,220.0000000000,607.0000000000,192.0000000000,2.0000000000
1717675351121,12.0000000000,74.0000000000,219.0000000000,600.0000000000,190.0000000000,2.0000000000
1717675351121,12.0000000000,73.0000000000,217.0000000000,595.0000000000,188.0000000000,2.0000000000
1717675351148,12.0000000000,73.0000000000,216.0000000000,590.0000000000,188.0000000000,2.0000000000
1717675351149,12.0000000000,72.0000000000,214.0000000000,583.0000000000,187.0000000000,3.0000000000
1717675351149,12.0000000000,72.0000000000,212.0000000000,579.0000000000,185.0000000000,3.0000000000
1717675351149,12.0000000000,71.0000000000,211.0000000000,573.0000000000,184.0000000000,3.0000000000
1717675351150,22.0000000000,71.0000000000,211.0000000000,569.0000000000,184.0000000000,4.0000000000
1717675351150,22.0000000000,71.0000000000,209.0000000000,563.0000000000,182.0000000000,7.0000000000
1717675351150,38.0000000000,71.0000000000,207.0000000000,558.0000000000,180.0000000000,7.0000000000
1717675351150,37.0000000000,70.0000000000,207.0000000000,553.0000000000,179.0000000000,7.0000000000
1717675351152,36.0000000000,70.0000000000,206.0000000000,548.0000000000,179.0000000000,7.0000000000
1717675351152,36.0000000000,69.0000000000,204.0000000000,544.0000000000,178.0000000000,7.0000000000
1717675351152,35.0000000000,69.0000000000,300.0000000000,582.0000000000,176.0000000000,7.0000000000
1717675351152,35.0000000000,68.0000000000,299.0000000000,671.0000000000,176.0000000000,7.0000000000
1717675351152,35.0000000000,68.0000000000,295.0000000000,662.0000000000,175.0000000000,7.0000000000
1717675351152,35.0000000000,67.0000000000,294.0000000000,654.0000000000,173.0000000000,7.0000000000
1717675351152,35.0000000000,67.0000000000,291.0000000000,647.0000000000,172.0000000000,9.0000000000
1717675351152,35.0000000000,67.0000000000,289.0000000000,683.0000000000,172.0000000000,9.0000000000
1717675351153,35.0000000000,66.0000000000,287.0000000000,675.0000000000,170.0000000000,9.0000000000
1717675351153,35.0000000000,65.0000000000,285.0000000000,667.0000000000,169.0000000000,9.0000000000
1717675351153,35.0000000000,65.0000000000,284.0000000000,659.0000000000,167.0000000000,9.0000000000
1717675351181,35.0000000000,65.0000000000,281.0000000000,654.0000000000,167.0000000000,7.0000000000
1717675351181,34.0000000000,64.0000000000,280.0000000000,646.0000000000,167.0000000000,9.0000000000
1717675351182,34.0000000000,63.0000000000,278.0000000000,639.0000000000,166.0000000000,8.0000000000
1717675351182,33.0000000000,63.0000000000,276.0000000000,633.0000000000,165.0000000000,9.0000000000
1717675351182,33.0000000000,63.0000000000,275.0000000000,626.0000000000,163.0000000000,7.0000000000
1717675351182,33.0000000000,63.0000000000,271.0000000000,621.0000000000,163.0000000000,8.0000000000
1717675351182,33.0000000000,63.0000000000,271.0000000000,614.0000000000,161.0000000000,7.0000000000
1717675351182,33.0000000000,62.0000000000,269.0000000000,609.0000000000,161.0000000000,7.0000000000
1717675351182,32.0000000000,62.0000000000,268.0000000000,603.0000000000,160.0000000000,14.0000000000
1717675351182,37.0000000000,62.0000000000,265.0000000000,692.0000000000,203.0000000000,24.0000000000
1717675351183,38.0000000000,61.0000000000,263.0000000000,705.0000000000,201.0000000000,24.0000000000
1717675351183,37.0000000000,61.0000000000,262.0000000000,696.0000000000,199.0000000000,24.0000000000
1717675351183,36.0000000000,60.0000000000,261.0000000000,706.0000000000,198.0000000000,24.0000000000
1717675351183,35.0000000000,60.0000000000,259.0000000000,770.0000000000,197.0000000000,24.0000000000
1717675351183,36.0000000000,59.0000000000,257.0000000000,761.0000000000,195.0000000000,24.0000000000
1717675351201,35.0000000000,60.0000000000,255.0000000000,752.0000000000,194.0000000000,23.0000000000
1717675351202,35.0000000000,59.0000000000,255.0000000000,742.0000000000,193.0000000000,24.0000000000
1717675351202,35.0000000000,59.0000000000,252.0000000000,732.0000000000,192.0000000000,23.0000000000
1717675351202,35.0000000000,58.0000000000,251.0000000000,726.0000000000,190.0000000000,23.0000000000
1717675351202,35.0000000000,57.0000000000,249.0000000000,716.0000000000,189.0000000000,23.0000000000
1717675351202,35.0000000000,57.0000000000,248.0000000000,707.0000000000,188.0000000000,23.0000000000
1717675351202,35.0000000000,56.0000000000,247.0000000000,700.0000000000,187.0000000000,22.0000000000
1717675351202,33.0000000000,56.0000000000,244.0000000000,691.0000000000,185.0000000000,22.0000000000
1717675351203,33.0000000000,56.0000000000,243.0000000000,686.0000000000,184.0000000000,22.0000000000
1717675351203,33.0000000000,56.0000000000,241.0000000000,678.0000000000,183.0000000000,22.0000000000
1717675351203,33.0000000000,56.0000000000,240.0000000000,670.0000000000,182.0000000000,22.0000000000
1717675351218,33.0000000000,56.0000000000,239.0000000000,663.0000000000,181.0000000000,22.0000000000
1717675351218,33.0000000000,55.0000000000,237.0000000000,657.0000000000,179.0000000000,22.0000000000
1717675351219,32.0000000000,55.0000000000,236.0000000000,649.0000000000,178.0000000000,20.0000000000
1717675351219,32.0000000000,54.0000000000,235.0000000000,643.0000000000,177.0000000000,21.0000000000
1717675351219,48.0000000000,54.0000000000,233.0000000000,636.0000000000,176.0000000000,21.0000000000
1717675351219,48.0000000000,54.0000000000,231.0000000000,670.0000000000,175.0000000000,21.0000000000
1717675351219,47.0000000000,54.0000000000,231.0000000000,661.0000000000,174.0000000000,20.0000000000
1717675351219,47.0000000000,53.0000000000,229.0000000000,653.0000000000,173.0000000000,20.0000000000
1717675351219,46.0000000000,52.0000000000,227.0000000000,646.0000000000,172.0000000000,20.0000000000
1717675351235,46.0000000000,52.0000000000,227.0000000000,639.0000000000,174.0000000000,19.0000000000
1717675351237,46.0000000000,52.0000000000,225.0000000000,632.0000000000,222.0000000000,20.0000000000
1717675351237,45.0000000000,51.0000000000,224.0000000000,625.0000000000,220.0000000000,19.0000000000
1717675351237,45.0000000000,51.0000000000,223.0000000000,620.0000000000,218.0000000000,20.0000000000
1717675351237,44.0000000000,51.0000000000,222.0000000000,615.0000000000,216.0000000000,19.0000000000
1717675351238,45.0000000000,51.0000000000,220.0000000000,608.0000000000,215.0000000000,19.0000000000
1717675351238,44.0000000000,51.0000000000,219.0000000000,602.0000000000,214.0000000000,19.0000000000
1717675351238,44.0000000000,50.0000000000,217.0000000000,596.0000000000,211.0000000000,19.0000000000
1717675351238,44.0000000000,50.0000000000,216.0000000000,696.0000000000,211.0000000000,19.0000000000
1717675351239,43.0000000000,49.0000000000,215.0000000000,707.0000000000,209.0000000000,19.0000000000
1717675351239,44.0000000000,49.0000000000,214.0000000000,698.0000000000,207.0000000000,19.0000000000
1717675351267,43.0000000000,49.0000000000,212.0000000000,689.0000000000,207.0000000000,18.0000000000
1717675351268,43.0000000000,48.0000000000,211.0000000000,683.0000000000,205.0000000000,18.0000000000
1717675351268,43.0000000000,48.0000000000,210.0000000000,675.0000000000,204.0000000000,18.0000000000
1717675351268,42.0000000000,55.0000000000,209.0000000000,668.0000000000,203.0000000000,18.0000000000
1717675351268,41.0000000000,54.0000000000,207.0000000000,659.0000000000,201.0000000000,17.0000000000
1717675351268,41.0000000000,54.0000000000,207.0000000000,652.0000000000,199.0000000000,18.0000000000
1717675351269,40.0000000000,53.0000000000,206.0000000000,647.0000000000,198.0000000000,18.0000000000
1717675351269,40.0000000000,53.0000000000,204.0000000000,724.0000000000,197.0000000000,18.0000000000
1717675351269,39.0000000000,52.0000000000,204.0000000000,788.0000000000,196.0000000000,17.0000000000
1717675351269,39.0000000000,52.0000000000,203.0000000000,777.0000000000,195.0000000000,17.0000000000
1717675351269,39.0000000000,52.0000000000,201.0000000000,770.0000000000,193.0000000000,17.0000000000
1717675351269,39.0000000000,51.0000000000,199.0000000000,760.0000000000,192.0000000000,17.0000000000
1717675351269,39.0000000000,51.0000000000,199.0000000000,750.0000000000,192.0000000000,17.0000000000
1717675351270,39.0000000000,51.0000000000,198.0000000000,739.0000000000,190.0000000000,17.0000000000
1717675351270,39.0000000000,51.0000000000,196.0000000000,733.0000000000,189.0000000000,17.0000000000
1717675351270,47.0000000000,51.0000000000,195.0000000000,723.0000000000,188.0000000000,17.0000000000
1717675351270,46.0000000000,50.0000000000,195.0000000000,715.0000000000,187.0000000000,16.0000000000
1717675351270,46.0000000000,49.0000000000,193.0000000000,707.0000000000,185.0000000000,16.0000000000
1717675351286,46.0000000000,49.0000000000,192.0000000000,701.0000000000,184.0000000000,16.0000000000
1717675351286,46.0000000000,49.0000000000,191.0000000000,692.0000000000,183.0000000000,15.0000000000
1717675351286,45.0000000000,49.0000000000,191.0000000000,684.0000000000,182.0000000000,16.0000000000
1717675351286,44.0000000000,48.0000000000,190.0000000000,677.0000000000,181.0000000000,16.0000000000
1717675351286,44.0000000000,48.0000000000,188.0000000000,671.0000000000,180.0000000000,15.0000000000
1717675351286,44.0000000000,48.0000000000,187.0000000000,664.0000000000,179.0000000000,15.0000000000
1717675351287,44.0000000000,48.0000000000,186.0000000000,655.0000000000,178.0000000000,15.0000000000
1717675351287,44.0000000000,47.0000000000,185.0000000000,649.0000000000,177.0000000000,15.0000000000
1717675351300,44.0000000000,47.0000000000,184.0000000000,643.0000000000,176.0000000000,15.0000000000
1717675351301,44.0000000000,47.0000000000,184.0000000000,676.0000000000,175.0000000000,15.0000000000
1717675351301,44.0000000000,47.0000000000,183.0000000000,690.0000000000,204.0000000000,15.0000000000
1717675351301,44.0000000000,46.0000000000,182.0000000000,681.0000000000,203.0000000000,15.0000000000
1717675351301,43.0000000000,46.0000000000,180.0000000000,675.0000000000,200.0000000000,15.0000000000
1717675351301,42.0000000000,46.0000000000,179.0000000000,668.0000000000,199.0000000000,15.0000000000
1717675351302,42.0000000000,45.0000000000,177.0000000000,659.0000000000,198.0000000000,15.0000000000
1717675351316,41.0000000000,45.0000000000,177.0000000000,652.0000000000,196.0000000000,15.0000000000
1717675351316,41.0000000000,44.0000000000,176.0000000000,644.0000000000,195.0000000000,15.0000000000
1717675351316,41.0000000000,44.0000000000,176.0000000000,639.0000000000,194.0000000000,15.0000000000
1717675351316,40.0000000000,44.0000000000,175.0000000000,632.0000000000,193.0000000000,14.0000000000
1717675351317,41.0000000000,44.0000000000,174.0000000000,625.0000000000,192.0000000000,14.0000000000
1717675351317,41.0000000000,43.0000000000,172.0000000000,619.0000000000,190.0000000000,14.0000000000
1717675351317,41.0000000000,44.0000000000,172.0000000000,614.0000000000,189.0000000000,14.0000000000
1717675351317,39.0000000000,43.0000000000,171.0000000000,608.0000000000,188.0000000000,14.0000000000
1717675351317,39.0000000000,43.0000000000,170.0000000000,601.0000000000,187.0000000000,14.0000000000
1717675351332,39.0000000000,43.0000000000,169.0000000000,596.0000000000,185.0000000000,14.0000000000
1717675351333,39.0000000000,43.0000000000,167.0000000000,591.0000000000,184.0000000000,17.0000000000
1717675351333,39.0000000000,43.0000000000,171.0000000000,585.0000000000,184.0000000000,16.0000000000
1717675351333,39.0000000000,43.0000000000,169.0000000000,579.0000000000,182.0000000000,17.0000000000
1717675351333,39.0000000000,43.0000000000,167.0000000000,574.0000000000,181.0000000000,16.0000000000
1717675351333,39.0000000000,42.0000000000,167.0000000000,570.0000000000,179.0000000000,15.0000000000
1717675351333,39.0000000000,41.0000000000,167.0000000000,564.0000000000,179.0000000000,15.0000000000
1717675351333,39.0000000000,41.0000000000,166.0000000000,560.0000000000,177.0000000000,15.0000000000
1717675351347,39.0000000000,41.0000000000,165.0000000000,554.0000000000,176.0000000000,15.0000000000
1717675351348,39.0000000000,40.0000000000,167.0000000000,551.0000000000,175.0000000000,15.0000000000
1717675351348,39.0000000000,41.0000000000,179.0000000000,545.0000000000,174.0000000000,15.0000000000
1717675351348,38.0000000000,40.0000000000,177.0000000000,540.0000000000,174.0000000000,15.0000000000
1717675351348,38.0000000000,40.0000000000,218.0000000000,536.0000000000,172.0000000000,15.0000000000
1717675351349,37.0000000000,39.0000000000,219.0000000000,531.0000000000,171.0000000000,15.0000000000
1717675351349,37.0000000000,39.0000000000,217.0000000000,527.0000000000,170.0000000000,15.0000000000
1717675351349,38.0000000000,39.0000000000,216.0000000000,581.0000000000,168.0000000000,15.0000000000
1717675351349,36.0000000000,39.0000000000,214.0000000000,575.0000000000,167.0000000000,15.0000000000
1717675351372,38.0000000000,39.0000000000,212.0000000000,569.0000000000,167.0000000000,15.0000000000
1717675351373,38.0000000000,39.0000000000,211.0000000000,563.0000000000,167.0000000000,15.0000000000
1717675351373,37.0000000000,39.0000000000,209.0000000000,557.0000000000,165.0000000000,15.0000000000
1717675351373,38.0000000000,39.0000000000,207.0000000000,551.0000000000,164.0000000000,14.0000000000
1717675351374,36.0000000000,38.0000000000,207.0000000000,545.0000000000,163.0000000000,15.0000000000
1717675351374,36.0000000000,40.0000000000,207.0000000000,542.0000000000,162.0000000000,15.0000000000
1717675351374,36.0000000000,40.0000000000,207.0000000000,536.0000000000,161.0000000000,14.0000000000
1717675351375,36.0000000000,39.0000000000,206.0000000000,531.0000000000,160.0000000000,14.0000000000
1717675351375,36.0000000000,39.0000000000,204.0000000000,526.0000000000,159.0000000000,14.0000000000
1717675351375,35.0000000000,39.0000000000,203.0000000000,521.0000000000,159.0000000000,14.0000000000
1717675351376,35.0000000000,39.0000000000,201.0000000000,517.0000000000,157.0000000000,14.0000000000
1717675351376,35.0000000000,39.0000000000,199.0000000000,512.0000000000,157.0000000000,14.0000000000
1717675351376,35.0000000000,39.0000000000,199.0000000000,508.0000000000,156.0000000000,14.0000000000
1717675351389,35.0000000000,39.0000000000,198.0000000000,505.0000000000,155.0000000000,13.0000000000
1717675351389,34.0000000000,39.0000000000,196.0000000000,500.0000000000,155.0000000000,14.0000000000
1717675351389,34.0000000000,38.0000000000,195.0000000000,496.0000000000,153.0000000000,14.0000000000
1717675351389,34.0000000000,38.0000000000,194.0000000000,492.0000000000,152.0000000000,13.0000000000
1717675351390,34.0000000000,38.0000000000,193.0000000000,489.0000000000,152.0000000000,13.0000000000
1717675351390,34.0000000000,37.0000000000,192.0000000000,484.0000000000,151.0000000000,13.0000000000
1717675351390,33.0000000000,38.0000000000,191.0000000000,480.0000000000,150.0000000000,15.0000000000
1717675351390,51.0000000000,36.0000000000,190.0000000000,477.0000000000,149.0000000000,17.0000000000
1717675351390,51.0000000000,36.0000000000,188.0000000000,511.0000000000,148.0000000000,17.0000000000
1717675351404,51.0000000000,36.0000000000,188.0000000000,698.0000000000,147.0000000000,17.0000000000
1717675351404,51.0000000000,36.0000000000,187.0000000000,688.0000000000,147.0000000000,17.0000000000
1717675351405,50.0000000000,35.0000000000,185.0000000000,679.0000000000,145.0000000000,17.0000000000
1717675351405,49.0000000000,35.0000000000,184.0000000000,672.0000000000,145.0000000000,16.0000000000
1717675351405,49.0000000000,35.0000000000,183.0000000000,665.0000000000,143.0000000000,17.0000000000
1717675351405,49.0000000000,35.0000000000,182.0000000000,657.0000000000,199.0000000000,17.0000000000
1717675351405,48.0000000000,35.0000000000,181.0000000000,649.0000000000,198.0000000000,16.0000000000
1717675351419,48.0000000000,35.0000000000,179.0000000000,643.0000000000,196.0000000000,16.0000000000
1717675351420,48.0000000000,35.0000000000,193.0000000000,636.0000000000,195.0000000000,15.0000000000
1717675351420,48.0000000000,35.0000000000,192.0000000000,630.0000000000,194.0000000000,16.0000000000
1717675351420,48.0000000000,34.0000000000,191.0000000000,623.0000000000,193.0000000000,16.0000000000
1717675351420,48.0000000000,34.0000000000,190.0000000000,615.0000000000,192.0000000000,15.0000000000
1717675351420,47.0000000000,33.0000000000,188.0000000000,611.0000000000,190.0000000000,15.0000000000
1717675351420,47.0000000000,34.0000000000,187.0000000000,604.0000000000,188.0000000000,15.0000000000
1717675351420,46.0000000000,33.0000000000,186.0000000000,599.0000000000,188.0000000000,15.0000000000
1717675351433,46.0000000000,33.0000000000,184.0000000000,591.0000000000,187.0000000000,15.0000000000
1717675351433,46.0000000000,33.0000000000,184.0000000000,588.0000000000,185.0000000000,15.0000000000
1717675351434,45.0000000000,33.0000000000,183.0000000000,582.0000000000,184.0000000000,15.0000000000
1717675351434,45.0000000000,32.0000000000,182.0000000000,575.0000000000,183.0000000000,15.0000000000
1717675351434,44.0000000000,32.0000000000,179.0000000000,570.0000000000,182.0000000000,15.0000000000
1717675351434,44.0000000000,31.0000000000,179.0000000000,566.0000000000,180.0000000000,15.0000000000
1717675351434,44.0000000000,31.0000000000,177.0000000000,560.0000000000,179.0000000000,15.0000000000
1717675351434,44.0000000000,31.0000000000,177.0000000000,555.0000000000,178.0000000000,15.0000000000
1717675351434,43.0000000000,31.0000000000,176.0000000000,550.0000000000,177.0000000000,15.0000000000
1717675351459,43.0000000000,31.0000000000,175.0000000000,545.0000000000,176.0000000000,14.0000000000
1717675351459,43.0000000000,31.0000000000,173.0000000000,540.0000000000,175.0000000000,14.0000000000
1717675351459,43.0000000000,31.0000000000,172.0000000000,536.0000000000,174.0000000000,14.0000000000
1717675351459,41.0000000000,31.0000000000,172.0000000000,531.0000000000,172.0000000000,14.0000000000
1717675351459,41.0000000000,30.0000000000,171.0000000000,527.0000000000,172.0000000000,14.0000000000
1717675351460,42.0000000000,30.0000000000,170.0000000000,521.0000000000,171.0000000000,14.0000000000
1717675351460,41.0000000000,30.0000000000,169.0000000000,516.0000000000,169.0000000000,14.0000000000
1717675351460,41.0000000000,30.0000000000,167.0000000000,512.0000000000,167.0000000000,14.0000000000
1717675351460,40.0000000000,31.0000000000,167.0000000000,509.0000000000,167.0000000000,14.0000000000
1717675351460,39.0000000000,33.0000000000,210.0000000000,504.0000000000,167.0000000000,13.0000000000
1717675351460,39.0000000000,33.0000000000,207.0000000000,511.0000000000,166.0000000000,13.0000000000
1717675351460,39.0000000000,33.0000000000,207.0000000000,506.0000000000,164.0000000000,13.0000000000
1717675351460,39.0000000000,33.0000000000,224.0000000000,503.0000000000,163.0000000000,13.0000000000
1717675351474,39.0000000000,33.0000000000,278.0000000000,498.0000000000,162.0000000000,13.0000000000
1717675351475,39.0000000000,32.0000000000,275.0000000000,494.0000000000,161.0000000000,13.0000000000
1717675351475,39.0000000000,32.0000000000,273.0000000000,489.0000000000,160.0000000000,13.0000000000
1717675351475,39.0000000000,31.0000000000,271.0000000000,485.0000000000,159.0000000000,13.0000000000
1717675351475,39.0000000000,31.0000000000,269.0000000000,481.0000000000,158.0000000000,13.0000000000
1717675351475,38.0000000000,31.0000000000,267.0000000000,478.0000000000,158.0000000000,13.0000000000
1717675351475,38.0000000000,31.0000000000,265.0000000000,473.0000000000,157.0000000000,12.0000000000
1717675351475,38.0000000000,31.0000000000,263.0000000000,471.0000000000,156.0000000000,12.0000000000
1717675351476,38.0000000000,31.0000000000,262.0000000000,467.0000000000,155.0000000000,12.0000000000
1717675351491,38.0000000000,63.0000000000,260.0000000000,463.0000000000,153.0000000000,12.0000000000
1717675351492,37.0000000000,92.0000000000,259.0000000000,460.0000000000,153.0000000000,12.0000000000
1717675351492,37.0000000000,92.0000000000,255.0000000000,455.0000000000,152.0000000000,12.0000000000
1717675351492,36.0000000000,91.0000000000,255.0000000000,454.0000000000,152.0000000000,12.0000000000
1717675351492,36.0000000000,89.0000000000,253.0000000000,537.0000000000,151.0000000000,12.0000000000
1717675351492,36.0000000000,89.0000000000,252.0000000000,531.0000000000,150.0000000000,12.0000000000
1717675351492,35.0000000000,88.0000000000,249.0000000000,526.0000000000,148.0000000000,12.0000000000
1717675351493,36.0000000000,88.0000000000,248.0000000000,522.0000000000,147.0000000000,11.0000000000
1717675351493,35.0000000000,88.0000000000,247.0000000000,516.0000000000,147.0000000000,12.0000000000
1717675351506,35.0000000000,86.0000000000,246.0000000000,511.0000000000,146.0000000000,12.0000000000
1717675351506,35.0000000000,86.0000000000,243.0000000000,507.0000000000,145.0000000000,12.0000000000
1717675351506,35.0000000000,85.0000000000,242.0000000000,503.0000000000,145.0000000000,11.0000000000
1717675351506,35.0000000000,85.0000000000,240.0000000000,497.0000000000,143.0000000000,11.0000000000
1717675351507,35.0000000000,84.0000000000,240.0000000000,493.0000000000,143.0000000000,11.0000000000
1717675351507,34.0000000000,83.0000000000,238.0000000000,488.0000000000,142.0000000000,11.0000000000
1717675351523,34.0000000000,83.0000000000,236.0000000000,484.0000000000,142.0000000000,11.0000000000
1717675351525,34.0000000000,82.0000000000,235.0000000000,480.0000000000,140.0000000000,11.0000000000
1717675351525,34.0000000000,81.0000000000,233.0000000000,476.0000000000,140.0000000000,11.0000000000
1717675351526,33.0000000000,81.0000000000,231.0000000000,472.0000000000,139.0000000000,11.0000000000
1717675351526,32.0000000000,81.0000000000,230.0000000000,468.0000000000,138.0000000000,11.0000000000
1717675351526,33.0000000000,80.0000000000,229.0000000000,464.0000000000,137.0000000000,10.0000000000
1717675351526,33.0000000000,79.0000000000,227.0000000000,460.0000000000,135.0000000000,10.0000000000
1717675351527,32.0000000000,79.0000000000,227.0000000000,457.0000000000,166.0000000000,10.0000000000
1717675351527,31.0000000000,79.0000000000,292.0000000000,507.0000000000,235.0000000000,11.0000000000
1717675351527,31.0000000000,79.0000000000,290.0000000000,503.0000000000,231.0000000000,10.0000000000
1717675351527,31.0000000000,78.0000000000,287.0000000000,498.0000000000,231.0000000000,9.0000000000
1717675351528,31.0000000000,78.0000000000,286.0000000000,493.0000000000,230.0000000000,10.0000000000
1717675351528,31.0000000000,77.0000000000,284.0000000000,489.0000000000,227.0000000000,10.0000000000
1717675351528,31.0000000000,76.0000000000,281.0000000000,484.0000000000,226.0000000000,10.0000000000
1717675351553,31.0000000000,76.0000000000,280.0000000000,480.0000000000,224.0000000000,9.0000000000
1717675351554,31.0000000000,75.0000000000,278.0000000000,476.0000000000,223.0000000000,10.0000000000
1717675351554,31.0000000000,75.0000000000,275.0000000000,472.0000000000,222.0000000000,9.0000000000
1717675351554,31.0000000000,75.0000000000,275.0000000000,467.0000000000,220.0000000000,9.0000000000
1717675351554,31.0000000000,73.0000000000,272.0000000000,464.0000000000,219.0000000000,9.0000000000
1717675351555,31.0000000000,73.0000000000,271.0000000000,587.0000000000,217.0000000000,9.0000000000
1717675351555,30.0000000000,73.0000000000,269.0000000000,588.0000000000,216.0000000000,9.0000000000
1717675351555,30.0000000000,72.0000000000,268.0000000000,583.0000000000,215.0000000000,11.0000000000
1717675351555,30.0000000000,71.0000000000,265.0000000000,575.0000000000,214.0000000000,12.0000000000
1717675351555,30.0000000000,71.0000000000,263.0000000000,569.0000000000,211.0000000000,11.0000000000
1717675351555,30.0000000000,71.0000000000,262.0000000000,565.0000000000,211.0000000000,11.0000000000
1717675351555,30.0000000000,71.0000000000,260.0000000000,559.0000000000,209.0000000000,11.0000000000
1717675351555,29.0000000000,70.0000000000,259.0000000000,553.0000000000,207.0000000000,11.0000000000
1717675351573,29.0000000000,71.0000000000,257.0000000000,547.0000000000,207.0000000000,11.0000000000
1717675351574,28.0000000000,69.0000000000,255.0000000000,542.0000000000,205.0000000000,11.0000000000
1717675351575,28.0000000000,69.0000000000,254.0000000000,537.0000000000,204.0000000000,11.0000000000
1717675351575,28.0000000000,68.0000000000,252.0000000000,532.0000000000,203.0000000000,11.0000000000
1717675351575,28.0000000000,68.0000000000,251.0000000000,527.0000000000,201.0000000000,11.0000000000
1717675351576,28.0000000000,67.0000000000,249.0000000000,522.0000000000,199.0000000000,9.0000000000
1717675351576,28.0000000000,67.0000000000,248.0000000000,518.0000000000,199.0000000000,11.0000000000
1717675351576,28.0000000000,67.0000000000,247.0000000000,513.0000000000,198.0000000000,9.0000000000
1717675351576,28.0000000000,67.0000000000,244.0000000000,510.0000000000,196.0000000000,9.0000000000
1717675351577,28.0000000000,66.0000000000,243.0000000000,505.0000000000,195.0000000000,9.0000000000
1717675351577,27.0000000000,66.0000000000,242.0000000000,500.0000000000,195.0000000000,10.0000000000
1717675351609,27.0000000000,65.0000000000,240.0000000000,496.0000000000,193.0000000000,10.0000000000
1717675351610,27.0000000000,65.0000000000,239.0000000000,492.0000000000,192.0000000000,10.0000000000
1717675351610,27.0000000000,65.0000000000,238.0000000000,487.0000000000,192.0000000000,9.0000000000
1717675351610,27.0000000000,64.0000000000,236.0000000000,483.0000000000,190.0000000000,9.0000000000
1717675351610,27.0000000000,63.0000000000,235.0000000000,480.0000000000,189.0000000000,9.0000000000
1717675351610,27.0000000000,63.0000000000,233.0000000000,476.0000000000,188.0000000000,9.0000000000
1717675351610,25.0000000000,63.0000000000,231.0000000000,472.0000000000,187.0000000000,9.0000000000
1717675351610,26.0000000000,63.0000000000,231.0000000000,468.0000000000,185.0000000000,9.0000000000
1717675351611,25.0000000000,63.0000000000,230.0000000000,465.0000000000,184.0000000000,9.0000000000
1717675351611,25.0000000000,63.0000000000,228.0000000000,461.0000000000,184.0000000000,9.0000000000
1717675351611,25.0000000000,62.0000000000,227.0000000000,457.0000000000,183.0000000000,9.0000000000
1717675351611,25.0000000000,62.0000000000,225.0000000000,455.0000000000,182.0000000000,8.0000000000
1717675351611,25.0000000000,60.0000000000,224.0000000000,451.0000000000,180.0000000000,9.0000000000
1717675351611,24.0000000000,78.0000000000,223.0000000000,448.0000000000,179.0000000000,9.0000000000
1717675351611,25.0000000000,155.0000000000,222.0000000000,444.0000000000,178.0000000000,9.0000000000
1717675351611,25.0000000000,153.0000000000,220.0000000000,440.0000000000,177.0000000000,8.0000000000
1717675351611,24.0000000000,152.0000000000,219.0000000000,437.0000000000,176.0000000000,8.0000000000
1717675351612,24.0000000000,150.0000000000,227.0000000000,435.0000000000,175.0000000000,7.0000000000
1717675351612,24.0000000000,149.0000000000,225.0000000000,432.0000000000,174.0000000000,7.0000000000
1717675351612,24.0000000000,148.0000000000,224.0000000000,428.0000000000,173.0000000000,7.0000000000
1717675351627,24.0000000000,147.0000000000,223.0000000000,427.0000000000,172.0000000000,7.0000000000
1717675351628,24.0000000000,145.0000000000,221.0000000000,423.0000000000,175.0000000000,7.0000000000
1717675351628,24.0000000000,144.0000000000,220.0000000000,420.0000000000,189.0000000000,7.0000000000
1717675351628,23.0000000000,143.0000000000,218.0000000000,417.0000000000,188.0000000000,7.0000000000
1717675351629,24.0000000000,143.0000000000,217.0000000000,414.0000000000,187.0000000000,7.0000000000
1717675351629,23.0000000000,142.0000000000,216.0000000000,411.0000000000,185.0000000000,8.0000000000
1717675351629,23.0000000000,141.0000000000,215.0000000000,409.0000000000,184.0000000000,7.0000000000
1717675351629,23.0000000000,140.0000000000,212.0000000000,406.0000000000,182.0000000000,7.0000000000
1717675351630,23.0000000000,139.0000000000,211.0000000000,403.0000000000,182.0000000000,7.0000000000
1717675351725,23.0000000000,139.0000000000,211.0000000000,399.0000000000,180.0000000000,7.0000000000
1717675351726,23.0000000000,137.0000000000,209.0000000000,398.0000000000,203.0000000000,7.0000000000
1717675351726,23.0000000000,136.0000000000,207.0000000000,395.0000000000,208.0000000000,7.0000000000
1717675351727,22.0000000000,135.0000000000,207.0000000000,391.0000000000,207.0000000000,7.0000000000
1717675351727,22.0000000000,135.0000000000,206.0000000000,388.0000000000,206.0000000000,7.0000000000
1717675351727,22.0000000000,134.0000000000,204.0000000000,387.0000000000,204.0000000000,7.0000000000
1717675351727,22.0000000000,133.0000000000,204.0000000000,384.0000000000,203.0000000000,7.0000000000
1717675351728,22.0000000000,131.0000000000,203.0000000000,382.0000000000,201.0000000000,7.0000000000
1717675351728,22.0000000000,131.0000000000,201.0000000000,379.0000000000,199.0000000000,7.0000000000
1717675351728,22.0000000000,131.0000000000,199.0000000000,376.0000000000,199.0000000000,7.0000000000
1717675351729,22.0000000000,129.0000000000,199.0000000000,374.0000000000,198.0000000000,7.0000000000
1717675351729,22.0000000000,129.0000000000,198.0000000000,371.0000000000,196.0000000000,7.0000000000
1717675351729,23.0000000000,127.0000000000,196.0000000000,369.0000000000,195.0000000000,7.0000000000
1717675351729,23.0000000000,127.0000000000,195.0000000000,367.0000000000,193.0000000000,7.0000000000
1717675351730,22.0000000000,127.0000000000,195.0000000000,364.0000000000,192.0000000000,7.0000000000
1717675351730,22.0000000000,126.0000000000,194.0000000000,362.0000000000,192.0000000000,7.0000000000
1717675351730,22.0000000000,125.0000000000,192.0000000000,359.0000000000,190.0000000000,7.0000000000
1717675351730,22.0000000000,124.0000000000,192.0000000000,358.0000000000,189.0000000000,7.0000000000
1717675351731,22.0000000000,123.0000000000,191.0000000000,355.0000000000,188.0000000000,7.0000000000
1717675351731,22.0000000000,123.0000000000,190.0000000000,352.0000000000,187.0000000000,15.0000000000
1717675351731,22.0000000000,121.0000000000,188.0000000000,351.0000000000,185.0000000000,15.0000000000
1717675351731,22.0000000000,121.0000000000,188.0000000000,348.0000000000,184.0000000000,15.0000000000
1717675351732,22.0000000000,120.0000000000,187.0000000000,345.0000000000,184.0000000000,14.0000000000
1717675351732,23.0000000000,120.0000000000,185.0000000000,344.0000000000,182.0000000000,15.0000000000
1717675351732,22.0000000000,119.0000000000,184.0000000000,341.0000000000,180.0000000000,14.0000000000
1717675351732,22.0000000000,118.0000000000,183.0000000000,391.0000000000,179.0000000000,14.0000000000
1717675351733,22.0000000000,117.0000000000,182.0000000000,387.0000000000,179.0000000000,14.0000000000
1717675351733,22.0000000000,116.0000000000,282.0000000000,384.0000000000,177.0000000000,14.0000000000
1717675351733,22.0000000000,115.0000000000,279.0000000000,380.0000000000,176.0000000000,14.0000000000
1717675351734,22.0000000000,115.0000000000,276.0000000000,377.0000000000,175.0000000000,14.0000000000
1717675351734,22.0000000000,114.0000000000,274.0000000000,374.0000000000,174.0000000000,13.0000000000
1717675351734,22.0000000000,114.0000000000,272.0000000000,371.0000000000,172.0000000000,13.0000000000
1717675351734,20.0000000000,113.0000000000,270.0000000000,368.0000000000,171.0000000000,14.0000000000
1717675351735,21.0000000000,112.0000000000,268.0000000000,364.0000000000,171.0000000000,13.0000000000
1717675351735,21.0000000000,112.0000000000,267.0000000000,361.0000000000,169.0000000000,13.0000000000
1717675351735,20.0000000000,147.0000000000,265.0000000000,359.0000000000,168.0000000000,13.0000000000
1717675351735,20.0000000000,166.0000000000,263.0000000000,355.0000000000,167.0000000000,12.0000000000
1717675351736,20.0000000000,164.0000000000,260.0000000000,352.0000000000,167.0000000000,13.0000000000
1717675351736,19.0000000000,163.0000000000,259.0000000000,350.0000000000,166.0000000000,12.0000000000
1717675351736,19.0000000000,162.0000000000,257.0000000000,347.0000000000,164.0000000000,12.0000000000
1717675351736,20.0000000000,160.0000000000,255.0000000000,344.0000000000,163.0000000000,12.0000000000
1717675351737,20.0000000000,159.0000000000,254.0000000000,343.0000000000,162.0000000000,12.0000000000
1717675351737,19.0000000000,158.0000000000,252.0000000000,366.0000000000,161.0000000000,12.0000000000
1717675351737,19.0000000000,158.0000000000,251.0000000000,440.0000000000,159.0000000000,12.0000000000
1717675351738,20.0000000000,156.0000000000,248.0000000000,436.0000000000,159.0000000000,12.0000000000
1717675351738,19.0000000000,156.0000000000,248.0000000000,432.0000000000,159.0000000000,12.0000000000
1717675351738,19.0000000000,153.0000000000,246.0000000000,428.0000000000,158.0000000000,12.0000000000
1717675351738,19.0000000000,153.0000000000,243.0000000000,423.0000000000,157.0000000000,12.0000000000
1717675351739,19.0000000000,152.0000000000,243.0000000000,420.0000000000,156.0000000000,12.0000000000
1717675351739,19.0000000000,151.0000000000,241.0000000000,415.0000000000,155.0000000000,12.0000000000
1717675351739,19.0000000000,150.0000000000,239.0000000000,412.0000000000,154.0000000000,11.0000000000
1717675351740,19.0000000000,148.0000000000,238.0000000000,408.0000000000,153.0000000000,12.0000000000
1717675351740,19.0000000000,148.0000000000,236.0000000000,406.0000000000,152.0000000000,12.0000000000
1717675351740,22.0000000000,147.0000000000,235.0000000000,401.0000000000,152.0000000000,12.0000000000
1717675351740,27.0000000000,145.0000000000,233.0000000000,399.0000000000,150.0000000000,11.0000000000
1717675351741,26.0000000000,145.0000000000,231.0000000000,396.0000000000,149.0000000000,12.0000000000
1717675351741,26.0000000000,144.0000000000,230.0000000000,391.0000000000,148.0000000000,11.0000000000
1717675351741,26.0000000000,143.0000000000,228.0000000000,390.0000000000,147.0000000000,11.0000000000
1717675351742,25.0000000000,142.0000000000,227.0000000000,386.0000000000,147.0000000000,11.0000000000
1717675351790,25.0000000000,142.0000000000,225.0000000000,383.0000000000,146.0000000000,11.0000000000
1717675351791,25.0000000000,140.0000000000,224.0000000000,380.0000000000,145.0000000000,10.0000000000
1717675351792,25.0000000000,140.0000000000,223.0000000000,466.0000000000,144.0000000000,11.0000000000
1717675351792,28.0000000000,138.0000000000,222.0000000000,460.0000000000,143.0000000000,11.0000000000
1717675351792,29.0000000000,137.0000000000,220.0000000000,455.0000000000,143.0000000000,11.0000000000
1717675351792,29.0000000000,136.0000000000,219.0000000000,451.0000000000,142.0000000000,11.0000000000
1717675351793,29.0000000000,135.0000000000,217.0000000000,448.0000000000,141.0000000000,11.0000000000
1717675351793,29.0000000000,135.0000000000,216.0000000000,443.0000000000,140.0000000000,10.0000000000
1717675351793,28.0000000000,134.0000000000,215.0000000000,439.0000000000,140.0000000000,9.0000000000
1717675351794,28.0000000000,134.0000000000,214.0000000000,435.0000000000,139.0000000000,11.0000000000
1717675351794,28.0000000000,132.0000000000,212.0000000000,432.0000000000,137.0000000000,10.0000000000
1717675351794,28.0000000000,131.0000000000,211.0000000000,428.0000000000,136.0000000000,10.0000000000
1717675351795,28.0000000000,131.0000000000,209.0000000000,423.0000000000,135.0000000000,9.0000000000
1717675351795,28.0000000000,129.0000000000,208.0000000000,420.0000000000,135.0000000000,9.0000000000
1717675351795,27.0000000000,129.0000000000,207.0000000000,417.0000000000,135.0000000000,9.0000000000
1717675351795,27.0000000000,127.0000000000,206.0000000000,448.0000000000,134.0000000000,9.0000000000
1717675351796,27.0000000000,127.0000000000,204.0000000000,482.0000000000,134.0000000000,9.0000000000
1717675351796,27.0000000000,127.0000000000,204.0000000000,477.0000000000,133.0000000000,9.0000000000
1717675351796,27.0000000000,126.0000000000,203.0000000000,472.0000000000,131.0000000000,9.0000000000
1717675351796,25.0000000000,126.0000000000,201.0000000000,468.0000000000,131.0000000000,9.0000000000
1717675351796,26.0000000000,124.0000000000,199.0000000000,464.0000000000,130.0000000000,9.0000000000
1717675351797,26.0000000000,124.0000000000,199.0000000000,460.0000000000,129.0000000000,9.0000000000
1717675351797,25.0000000000,124.0000000000,198.0000000000,455.0000000000,129.0000000000,9.0000000000
1717675351797,25.0000000000,122.0000000000,197.0000000000,452.0000000000,127.0000000000,9.0000000000
1717675351797,25.0000000000,122.0000000000,195.0000000000,448.0000000000,127.0000000000,9.0000000000
1717675351797,25.0000000000,120.0000000000,195.0000000000,444.0000000000,127.0000000000,9.0000000000
1717675351798,25.0000000000,120.0000000000,194.0000000000,440.0000000000,127.0000000000,8.0000000000
1717675351798,25.0000000000,120.0000000000,195.0000000000,540.0000000000,220.0000000000,9.0000000000
1717675351798,25.0000000000,119.0000000000,193.0000000000,534.0000000000,216.0000000000,8.0000000000
1717675351798,24.0000000000,118.0000000000,192.0000000000,527.0000000000,215.0000000000,7.0000000000
1717675351798,24.0000000000,118.0000000000,191.0000000000,523.0000000000,213.0000000000,8.0000000000
1717675351823,24.0000000000,117.0000000000,190.0000000000,517.0000000000,211.0000000000,7.0000000000
1717675351826,24.0000000000,116.0000000000,189.0000000000,513.0000000000,210.0000000000,7.0000000000
1717675351827,24.0000000000,115.0000000000,188.0000000000,508.0000000000,208.0000000000,7.0000000000
1717675351828,23.0000000000,115.0000000000,187.0000000000,503.0000000000,207.0000000000,7.0000000000
1717675351829,24.0000000000,113.0000000000,185.0000000000,498.0000000000,206.0000000000,7.0000000000
1717675351829,24.0000000000,113.0000000000,184.0000000000,494.0000000000,204.0000000000,7.0000000000
1717675351830,23.0000000000,113.0000000000,184.0000000000,489.0000000000,203.0000000000,7.0000000000
1717675351830,23.0000000000,112.0000000000,183.0000000000,486.0000000000,202.0000000000,7.0000000000
1717675351831,23.0000000000,111.0000000000,217.0000000000,481.0000000000,200.0000000000,7.0000000000
1717675351831,23.0000000000,111.0000000000,217.0000000000,478.0000000000,199.0000000000,7.0000000000
1717675351832,23.0000000000,112.0000000000,216.0000000000,473.0000000000,198.0000000000,7.0000000000
1717675351832,23.0000000000,113.0000000000,215.0000000000,468.0000000000,196.0000000000,7.0000000000
1717675351833,22.0000000000,112.0000000000,214.0000000000,465.0000000000,195.0000000000,7.0000000000
1717675351834,22.0000000000,111.0000000000,211.0000000000,462.0000000000,194.0000000000,7.0000000000
1717675351834,22.0000000000,111.0000000000,210.0000000000,457.0000000000,192.0000000000,7.0000000000
1717675351835,22.0000000000,110.0000000000,209.0000000000,454.0000000000,192.0000000000,7.0000000000
1717675351836,22.0000000000,110.0000000000,208.0000000000,449.0000000000,191.0000000000,7.0000000000
1717675351837,21.0000000000,108.0000000000,206.0000000000,447.0000000000,190.0000000000,7.0000000000
1717675351838,21.0000000000,108.0000000000,206.0000000000,443.0000000000,188.0000000000,7.0000000000
1717675351839,21.0000000000,107.0000000000,204.0000000000,439.0000000000,187.0000000000,7.0000000000
1717675351840,21.0000000000,106.0000000000,203.0000000000,435.0000000000,187.0000000000,7.0000000000
1717675351840,21.0000000000,105.0000000000,201.0000000000,432.0000000000,185.0000000000,7.0000000000
1717675351872,20.0000000000,105.0000000000,199.0000000000,429.0000000000,184.0000000000,7.0000000000
1717675351874,20.0000000000,104.0000000000,199.0000000000,425.0000000000,183.0000000000,7.0000000000
1717675351874,20.0000000000,103.0000000000,198.0000000000,422.0000000000,182.0000000000,7.0000000000
1717675351875,20.0000000000,103.0000000000,196.0000000000,419.0000000000,180.0000000000,7.0000000000
1717675351875,20.0000000000,103.0000000000,195.0000000000,415.0000000000,179.0000000000,7.0000000000
1717675351875,20.0000000000,103.0000000000,194.0000000000,412.0000000000,178.0000000000,7.0000000000
1717675351875,19.0000000000,102.0000000000,193.0000000000,483.0000000000,177.0000000000,6.0000000000
1717675351876,19.0000000000,101.0000000000,192.0000000000,521.0000000000,176.0000000000,7.0000000000
1717675351876,19.0000000000,101.0000000000,191.0000000000,516.0000000000,176.0000000000,7.0000000000
1717675351876,19.0000000000,100.0000000000,189.0000000000,511.0000000000,174.0000000000,7.0000000000
1717675351877,19.0000000000,99.0000000000,188.0000000000,505.0000000000,173.0000000000,7.0000000000
1717675351877,19.0000000000,99.0000000000,187.0000000000,502.0000000000,172.0000000000,6.0000000000
1717675351877,19.0000000000,99.0000000000,186.0000000000,497.0000000000,172.0000000000,6.0000000000
1717675351877,19.0000000000,98.0000000000,185.0000000000,494.0000000000,169.0000000000,7.0000000000
1717675351878,19.0000000000,97.0000000000,184.0000000000,488.0000000000,169.0000000000,6.0000000000
1717675351878,19.0000000000,97.0000000000,183.0000000000,484.0000000000,167.0000000000,6.0000000000
1717675351878,19.0000000000,96.0000000000,182.0000000000,481.0000000000,167.0000000000,6.0000000000
1717675351878,18.0000000000,96.0000000000,181.0000000000,476.0000000000,167.0000000000,6.0000000000
1717675351879,18.0000000000,96.0000000000,179.0000000000,473.0000000000,166.0000000000,6.0000000000
1717675351879,19.0000000000,95.0000000000,179.0000000000,468.0000000000,164.0000000000,6.0000000000
1717675351902,18.0000000000,95.0000000000,178.0000000000,464.0000000000,163.0000000000,6.0000000000
1717675351903,17.0000000000,94.0000000000,177.0000000000,461.0000000000,163.0000000000,6.0000000000
1717675351903,17.0000000000,93.0000000000,176.0000000000,457.0000000000,161.0000000000,11.0000000000
1717675351903,17.0000000000,93.0000000000,280.0000000000,454.0000000000,161.0000000000,16.0000000000
1717675351904,17.0000000000,92.0000000000,276.0000000000,449.0000000000,159.0000000000,15.0000000000
1717675351904,17.0000000000,92.0000000000,273.0000000000,446.0000000000,159.0000000000,15.0000000000
1717675351904,17.0000000000,91.0000000000,272.0000000000,442.0000000000,158.0000000000,15.0000000000
1717675351904,17.0000000000,91.0000000000,270.0000000000,439.0000000000,157.0000000000,15.0000000000
1717675351904,17.0000000000,91.0000000000,268.0000000000,435.0000000000,156.0000000000,15.0000000000
1717675351904,17.0000000000,90.0000000000,266.0000000000,432.0000000000,155.0000000000,15.0000000000
1717675351904,17.0000000000,89.0000000000,264.0000000000,428.0000000000,155.0000000000,15.0000000000
1717675351905,17.0000000000,89.0000000000,263.0000000000,424.0000000000,153.0000000000,15.0000000000
1717675351905,17.0000000000,88.0000000000,260.0000000000,422.0000000000,152.0000000000,15.0000000000
1717675351905,15.0000000000,88.0000000000,259.0000000000,419.0000000000,152.0000000000,14.0000000000
1717675351905,16.0000000000,88.0000000000,257.0000000000,415.0000000000,151.0000000000,14.0000000000
1717675351924,15.0000000000,87.0000000000,255.0000000000,412.0000000000,150.0000000000,14.0000000000
1717675351925,15.0000000000,87.0000000000,254.0000000000,409.0000000000,150.0000000000,15.0000000000
1717675351926,17.0000000000,86.0000000000,252.0000000000,448.0000000000,148.0000000000,15.0000000000
1717675351926,16.0000000000,86.0000000000,251.0000000000,499.0000000000,147.0000000000,14.0000000000
1717675351926,16.0000000000,85.0000000000,249.0000000000,495.0000000000,147.0000000000,14.0000000000
1717675351927,15.0000000000,84.0000000000,248.0000000000,491.0000000000,146.0000000000,14.0000000000
1717675351927,15.0000000000,83.0000000000,246.0000000000,486.0000000000,145.0000000000,14.0000000000
1717675351927,16.0000000000,83.0000000000,244.0000000000,481.0000000000,143.0000000000,14.0000000000
1717675351928,15.0000000000,83.0000000000,243.0000000000,476.0000000000,143.0000000000,14.0000000000
1717675351928,15.0000000000,83.0000000000,241.0000000000,473.0000000000,142.0000000000,14.0000000000
1717675351928,15.0000000000,82.0000000000,240.0000000000,468.0000000000,142.0000000000,13.0000000000
1717675351947,15.0000000000,82.0000000000,238.0000000000,463.0000000000,142.0000000000,14.0000000000
1717675351948,15.0000000000,81.0000000000,236.0000000000,460.0000000000,140.0000000000,13.0000000000
1717675351948,15.0000000000,81.0000000000,235.0000000000,456.0000000000,139.0000000000,13.0000000000
1717675351948,15.0000000000,80.0000000000,233.0000000000,452.0000000000,139.0000000000,13.0000000000
1717675351949,15.0000000000,80.0000000000,233.0000000000,448.0000000000,137.0000000000,13.0000000000
1717675351949,15.0000000000,79.0000000000,260.0000000000,444.0000000000,137.0000000000,12.0000000000
1717675351949,15.0000000000,79.0000000000,259.0000000000,441.0000000000,135.0000000000,13.0000000000
1717675351949,15.0000000000,79.0000000000,255.0000000000,438.0000000000,135.0000000000,12.0000000000
1717675351949,15.0000000000,78.0000000000,255.0000000000,434.0000000000,135.0000000000,13.0000000000
1717675351949,15.0000000000,78.0000000000,254.0000000000,430.0000000000,134.0000000000,12.0000000000
1717675351950,15.0000000000,78.0000000000,252.0000000000,426.0000000000,134.0000000000,12.0000000000
1717675351950,14.0000000000,76.0000000000,249.0000000000,423.0000000000,132.0000000000,12.0000000000
1717675351950,14.0000000000,76.0000000000,248.0000000000,420.0000000000,131.0000000000,12.0000000000
1717675351982,15.0000000000,76.0000000000,247.0000000000,416.0000000000,131.0000000000,12.0000000000
1717675351983,15.0000000000,76.0000000000,245.0000000000,413.0000000000,131.0000000000,12.0000000000
1717675351983,15.0000000000,75.0000000000,243.0000000000,410.0000000000,130.0000000000,12.0000000000
1717675351984,15.0000000000,75.0000000000,241.0000000000,407.0000000000,129.0000000000,12.0000000000
1717675351984,15.0000000000,75.0000000000,240.0000000000,403.0000000000,127.0000000000,12.0000000000
1717675351984,14.0000000000,73.0000000000,239.0000000000,400.0000000000,127.0000000000,12.0000000000
1717675351985,14.0000000000,73.0000000000,236.0000000000,398.0000000000,127.0000000000,12.0000000000
1717675351985,14.0000000000,73.0000000000,236.0000000000,395.0000000000,127.0000000000,12.0000000000
1717675351985,14.0000000000,72.0000000000,235.0000000000,391.0000000000,135.0000000000,12.0000000000
1717675351985,14.0000000000,71.0000000000,231.0000000000,388.0000000000,135.0000000000,12.0000000000
1717675351986,15.0000000000,71.0000000000,231.0000000000,387.0000000000,134.0000000000,11.0000000000
1717675351986,15.0000000000,71.0000000000,230.0000000000,384.0000000000,132.0000000000,11.0000000000
1717675351986,15.0000000000,71.0000000000,228.0000000000,380.0000000000,131.0000000000,11.0000000000
1717675351986,15.0000000000,71.0000000000,227.0000000000,377.0000000000,131.0000000000,11.0000000000
1717675351987,15.0000000000,71.0000000000,226.0000000000,376.0000000000,130.0000000000,11.0000000000
1717675351987,15.0000000000,113.0000000000,224.0000000000,372.0000000000,129.0000000000,11.0000000000
1717675351987,15.0000000000,112.0000000000,223.0000000000,370.0000000000,127.0000000000,11.0000000000
1717675351988,15.0000000000,111.0000000000,222.0000000000,367.0000000000,127.0000000000,11.0000000000
1717675351988,15.0000000000,110.0000000000,220.0000000000,364.0000000000,127.0000000000,11.0000000000
1717675351988,20.0000000000,109.0000000000,219.0000000000,361.0000000000,126.0000000000,11.0000000000
1717675352010,20.0000000000,108.0000000000,217.0000000000,367.0000000000,126.0000000000,10.0000000000
1717675352011,20.0000000000,108.0000000000,216.0000000000,364.0000000000,125.0000000000,10.0000000000
1717675352011,20.0000000000,107.0000000000,215.0000000000,359.0000000000,124.0000000000,10.0000000000
1717675352012,19.0000000000,106.0000000000,214.0000000000,358.0000000000,124.0000000000,9.0000000000
1717675352012,19.0000000000,105.0000000000,279.0000000000,355.0000000000,123.0000000000,10.0000000000
1717675352012,19.0000000000,105.0000000000,276.0000000000,467.0000000000,122.0000000000,9.0000000000
1717675352013,19.0000000000,103.0000000000,273.0000000000,511.0000000000,121.0000000000,9.0000000000
1717675352013,19.0000000000,103.0000000000,271.0000000000,504.0000000000,120.0000000000,9.0000000000
1717675352013,19.0000000000,103.0000000000,270.0000000000,499.0000000000,120.0000000000,9.0000000000
1717675352013,19.0000000000,103.0000000000,268.0000000000,496.0000000000,119.0000000000,9.0000000000
1717675352014,19.0000000000,102.0000000000,265.0000000000,491.0000000000,119.0000000000,9.0000000000
1717675352014,18.0000000000,101.0000000000,263.0000000000,486.0000000000,118.0000000000,9.0000000000
1717675352014,19.0000000000,100.0000000000,262.0000000000,481.0000000000,118.0000000000,9.0000000000
1717675352037,18.0000000000,99.0000000000,260.0000000000,478.0000000000,116.0000000000,9.0000000000
1717675352038,18.0000000000,99.0000000000,259.0000000000,473.0000000000,116.0000000000,9.0000000000
1717675352039,18.0000000000,98.0000000000,257.0000000000,469.0000000000,115.0000000000,8.0000000000
1717675352039,18.0000000000,98.0000000000,255.0000000000,466.0000000000,115.0000000000,9.0000000000
1717675352039,18.0000000000,97.0000000000,254.0000000000,462.0000000000,114.0000000000,9.0000000000
1717675352039,18.0000000000,97.0000000000,252.0000000000,487.0000000000,113.0000000000,9.0000000000
1717675352040,18.0000000000,96.0000000000,251.0000000000,539.0000000000,113.0000000000,12.0000000000
1717675352040,19.0000000000,96.0000000000,286.0000000000,587.0000000000,124.0000000000,15.0000000000
1717675352040,27.0000000000,95.0000000000,282.0000000000,580.0000000000,122.0000000000,16.0000000000
1717675352041,27.0000000000,95.0000000000,280.0000000000,575.0000000000,121.0000000000,15.0000000000
1717675352041,27.0000000000,94.0000000000,279.0000000000,568.0000000000,120.0000000000,15.0000000000
1717675352042,25.0000000000,93.0000000000,276.0000000000,562.0000000000,120.0000000000,15.0000000000
1717675352043,25.0000000000,92.0000000000,274.0000000000,558.0000000000,120.0000000000,15.0000000000
1717675352045,25.0000000000,92.0000000000,355.0000000000,551.0000000000,119.0000000000,15.0000000000
1717675352046,25.0000000000,92.0000000000,359.0000000000,546.0000000000,118.0000000000,15.0000000000
1717675352047,25.0000000000,91.0000000000,356.0000000000,540.0000000000,117.0000000000,15.0000000000
1717675352048,24.0000000000,91.0000000000,353.0000000000,536.0000000000,115.0000000000,15.0000000000
1717675352049,24.0000000000,90.0000000000,350.0000000000,531.0000000000,115.0000000000,15.0000000000
1717675352050,36.0000000000,89.0000000000,347.0000000000,526.0000000000,115.0000000000,15.0000000000
1717675352051,35.0000000000,88.0000000000,344.0000000000,521.0000000000,132.0000000000,15.0000000000
1717675352079,35.0000000000,88.0000000000,343.0000000000,516.0000000000,208.0000000000,14.0000000000
1717675352080,35.0000000000,88.0000000000,339.0000000000,512.0000000000,206.0000000000,14.0000000000
1717675352080,35.0000000000,88.0000000000,337.0000000000,508.0000000000,204.0000000000,14.0000000000
1717675352081,35.0000000000,87.0000000000,335.0000000000,503.0000000000,203.0000000000,14.0000000000
1717675352081,34.0000000000,86.0000000000,333.0000000000,498.0000000000,201.0000000000,14.0000000000
1717675352081,34.0000000000,86.0000000000,331.0000000000,495.0000000000,199.0000000000,14.0000000000
1717675352081,33.0000000000,86.0000000000,327.0000000000,490.0000000000,198.0000000000,14.0000000000
1717675352082,33.0000000000,84.0000000000,327.0000000000,486.0000000000,198.0000000000,14.0000000000
1717675352082,33.0000000000,83.0000000000,323.0000000000,481.0000000000,195.0000000000,14.0000000000
1717675352082,33.0000000000,83.0000000000,321.0000000000,478.0000000000,195.0000000000,13.0000000000
1717675352082,33.0000000000,83.0000000000,319.0000000000,474.0000000000,193.0000000000,13.0000000000
1717675352083,33.0000000000,83.0000000000,317.0000000000,470.0000000000,192.0000000000,13.0000000000
1717675352083,32.0000000000,82.0000000000,315.0000000000,466.0000000000,191.0000000000,13.0000000000
1717675352083,32.0000000000,81.0000000000,313.0000000000,463.0000000000,190.0000000000,13.0000000000
1717675352084,32.0000000000,81.0000000000,311.0000000000,459.0000000000,188.0000000000,13.0000000000
1717675352084,31.0000000000,81.0000000000,310.0000000000,455.0000000000,187.0000000000,13.0000000000
1717675352084,31.0000000000,79.0000000000,307.0000000000,451.0000000000,185.0000000000,12.0000000000
1717675352103,31.0000000000,79.0000000000,305.0000000000,448.0000000000,184.0000000000,12.0000000000
1717675352105,31.0000000000,79.0000000000,303.0000000000,444.0000000000,184.0000000000,12.0000000000
1717675352105,31.0000000000,78.0000000000,301.0000000000,440.0000000000,183.0000000000,12.0000000000
1717675352105,31.0000000000,78.0000000000,300.0000000000,438.0000000000,182.0000000000,12.0000000000
1717675352105,31.0000000000,78.0000000000,297.0000000000,434.0000000000,180.0000000000,12.0000000000
1717675352106,31.0000000000,77.0000000000,295.0000000000,431.0000000000,179.0000000000,12.0000000000
1717675352106,31.0000000000,77.0000000000,294.0000000000,428.0000000000,177.0000000000,12.0000000000
1717675352106,31.0000000000,76.0000000000,291.0000000000,486.0000000000,228.0000000000,11.0000000000
1717675352106,31.0000000000,76.0000000000,290.0000000000,499.0000000000,226.0000000000,12.0000000000
1717675352107,31.0000000000,75.0000000000,287.0000000000,495.0000000000,224.0000000000,12.0000000000
1717675352107,30.0000000000,75.0000000000,286.0000000000,489.0000000000,223.0000000000,12.0000000000
1717675352107,30.0000000000,75.0000000000,284.0000000000,484.0000000000,221.0000000000,12.0000000000
1717675352108,30.0000000000,75.0000000000,283.0000000000,480.0000000000,220.0000000000,12.0000000000
1717675352161,30.0000000000,73.0000000000,281.0000000000,476.0000000000,218.0000000000,12.0000000000
1717675352164,30.0000000000,73.0000000000,280.0000000000,472.0000000000,216.0000000000,11.0000000000
1717675352164,30.0000000000,73.0000000000,278.0000000000,467.0000000000,216.0000000000,11.0000000000
1717675352165,29.0000000000,104.0000000000,343.0000000000,463.0000000000,214.0000000000,11.0000000000
1717675352166,29.0000000000,157.0000000000,338.0000000000,459.0000000000,212.0000000000,11.0000000000
1717675352166,28.0000000000,155.0000000000,335.0000000000,455.0000000000,211.0000000000,11.0000000000
1717675352166,29.0000000000,154.0000000000,332.0000000000,451.0000000000,209.0000000000,11.0000000000
1717675352166,28.0000000000,195.0000000000,330.0000000000,448.0000000000,207.0000000000,11.0000000000
1717675352167,28.0000000000,192.0000000000,327.0000000000,444.0000000000,207.0000000000,11.0000000000
1717675352167,28.0000000000,190.0000000000,324.0000000000,440.0000000000,205.0000000000,11.0000000000
1717675352167,28.0000000000,188.0000000000,322.0000000000,435.0000000000,204.0000000000,10.0000000000
1717675352168,27.0000000000,187.0000000000,319.0000000000,432.0000000000,202.0000000000,10.0000000000
1717675352168,28.0000000000,185.0000000000,318.0000000000,428.0000000000,201.0000000000,10.0000000000
1717675352168,27.0000000000,184.0000000000,315.0000000000,423.0000000000,199.0000000000,10.0000000000
1717675352169,27.0000000000,183.0000000000,313.0000000000,421.0000000000,199.0000000000,11.0000000000
1717675352169,27.0000000000,182.0000000000,312.0000000000,498.0000000000,197.0000000000,9.0000000000
1717675352169,26.0000000000,179.0000000000,309.0000000000,493.0000000000,207.0000000000,9.0000000000
1717675352170,26.0000000000,179.0000000000,307.0000000000,488.0000000000,206.0000000000,10.0000000000
1717675352170,26.0000000000,177.0000000000,304.0000000000,483.0000000000,204.0000000000,9.0000000000
1717675352170,26.0000000000,176.0000000000,303.0000000000,479.0000000000,203.0000000000,9.0000000000
1717675352171,25.0000000000,175.0000000000,301.0000000000,476.0000000000,201.0000000000,31.0000000000
1717675352171,57.0000000000,174.0000000000,299.0000000000,470.0000000000,199.0000000000,30.0000000000
1717675352171,56.0000000000,172.0000000000,297.0000000000,465.0000000000,199.0000000000,30.0000000000
1717675352171,56.0000000000,172.0000000000,295.0000000000,461.0000000000,198.0000000000,29.0000000000
1717675352172,56.0000000000,171.0000000000,292.0000000000,457.0000000000,196.0000000000,30.0000000000
1717675352172,55.0000000000,169.0000000000,291.0000000000,454.0000000000,195.0000000000,29.0000000000
1717675352172,54.0000000000,167.0000000000,289.0000000000,449.0000000000,194.0000000000,29.0000000000
1717675352173,54.0000000000,167.0000000000,287.0000000000,446.0000000000,192.0000000000,28.0000000000
1717675352173,54.0000000000,166.0000000000,284.0000000000,441.0000000000,192.0000000000,29.0000000000
1717675352174,52.0000000000,165.0000000000,283.0000000000,438.0000000000,190.0000000000,28.0000000000
1717675352175,52.0000000000,163.0000000000,280.0000000000,433.0000000000,189.0000000000,28.0000000000
1717675352175,52.0000000000,163.0000000000,280.0000000000,430.0000000000,188.0000000000,28.0000000000
1717675352175,51.0000000000,161.0000000000,278.0000000000,526.0000000000,187.0000000000,28.0000000000
1717675352176,51.0000000000,160.0000000000,275.0000000000,520.0000000000,185.0000000000,28.0000000000
1717675352176,51.0000000000,159.0000000000,274.0000000000,515.0000000000,184.0000000000,28.0000000000
1717675352176,51.0000000000,159.0000000000,273.0000000000,510.0000000000,184.0000000000,27.0000000000
1717675352204,51.0000000000,158.0000000000,271.0000000000,504.0000000000,182.0000000000,27.0000000000
1717675352206,49.0000000000,156.0000000000,268.0000000000,499.0000000000,182.0000000000,27.0000000000
1717675352207,49.0000000000,156.0000000000,267.0000000000,495.0000000000,196.0000000000,27.0000000000
1717675352207,49.0000000000,155.0000000000,265.0000000000,490.0000000000,195.0000000000,27.0000000000
1717675352208,49.0000000000,153.0000000000,263.0000000000,486.0000000000,193.0000000000,25.0000000000
1717675352208,48.0000000000,153.0000000000,262.0000000000,481.0000000000,192.0000000000,26.0000000000
1717675352208,48.0000000000,152.0000000000,260.0000000000,477.0000000000,190.0000000000,26.0000000000
1717675352209,48.0000000000,151.0000000000,259.0000000000,472.0000000000,189.0000000000,25.0000000000
1717675352209,48.0000000000,150.0000000000,257.0000000000,468.0000000000,188.0000000000,25.0000000000
1717675352209,47.0000000000,148.0000000000,255.0000000000,464.0000000000,187.0000000000,25.0000000000
1717675352209,47.0000000000,148.0000000000,254.0000000000,460.0000000000,185.0000000000,24.0000000000
1717675352209,46.0000000000,147.0000000000,253.0000000000,455.0000000000,184.0000000000,24.0000000000
1717675352210,46.0000000000,146.0000000000,251.0000000000,451.0000000000,183.0000000000,24.0000000000
1717675352210,46.0000000000,145.0000000000,249.0000000000,448.0000000000,182.0000000000,24.0000000000
1717675352210,46.0000000000,143.0000000000,248.0000000000,444.0000000000,180.0000000000,24.0000000000
1717675352211,45.0000000000,143.0000000000,247.0000000000,440.0000000000,179.0000000000,24.0000000000
1717675352211,45.0000000000,143.0000000000,245.0000000000,436.0000000000,178.0000000000,24.0000000000
1717675352232,44.0000000000,142.0000000000,243.0000000000,432.0000000000,177.0000000000,24.0000000000
1717675352234,44.0000000000,140.0000000000,242.0000000000,430.0000000000,176.0000000000,23.0000000000
1717675352234,44.0000000000,140.0000000000,241.0000000000,427.0000000000,175.0000000000,23.0000000000
1717675352234,44.0000000000,139.0000000000,240.0000000000,423.0000000000,174.0000000000,23.0000000000
1717675352235,43.0000000000,138.0000000000,238.0000000000,457.0000000000,172.0000000000,24.0000000000
1717675352235,44.0000000000,137.0000000000,236.0000000000,452.0000000000,172.0000000000,23.0000000000
1717675352235,43.0000000000,135.0000000000,236.0000000000,448.0000000000,171.0000000000,23.0000000000
1717675352235,43.0000000000,135.0000000000,233.0000000000,444.0000000000,169.0000000000,23.0000000000
1717675352236,43.0000000000,135.0000000000,231.0000000000,440.0000000000,167.0000000000,23.0000000000
1717675352236,42.0000000000,134.0000000000,231.0000000000,435.0000000000,167.0000000000,22.0000000000
1717675352236,41.0000000000,132.0000000000,230.0000000000,432.0000000000,167.0000000000,22.0000000000
1717675352237,41.0000000000,132.0000000000,228.0000000000,428.0000000000,166.0000000000,22.0000000000
1717675352237,41.0000000000,131.0000000000,227.0000000000,423.0000000000,164.0000000000,22.0000000000
1717675352238,41.0000000000,131.0000000000,225.0000000000,420.0000000000,163.0000000000,22.0000000000
1717675352238,40.0000000000,130.0000000000,224.0000000000,417.0000000000,162.0000000000,22.0000000000
1717675352256,39.0000000000,129.0000000000,223.0000000000,415.0000000000,161.0000000000,22.0000000000
1717675352257,39.0000000000,128.0000000000,222.0000000000,411.0000000000,159.0000000000,21.0000000000
1717675352257,39.0000000000,127.0000000000,220.0000000000,408.0000000000,159.0000000000,21.0000000000
1717675352258,39.0000000000,127.0000000000,219.0000000000,404.0000000000,159.0000000000,20.0000000000
1717675352259,39.0000000000,126.0000000000,288.0000000000,473.0000000000,158.0000000000,21.0000000000
1717675352259,39.0000000000,126.0000000000,286.0000000000,468.0000000000,157.0000000000,20.0000000000
1717675352259,39.0000000000,124.0000000000,284.0000000000,463.0000000000,156.0000000000,20.0000000000
1717675352259,39.0000000000,124.0000000000,282.0000000000,459.0000000000,155.0000000000,20.0000000000
1717675352260,38.0000000000,123.0000000000,280.0000000000,455.0000000000,192.0000000000,19.0000000000
1717675352260,38.0000000000,122.0000000000,278.0000000000,451.0000000000,190.0000000000,19.0000000000
1717675352273,38.0000000000,121.0000000000,275.0000000000,447.0000000000,189.0000000000,19.0000000000
1717675352274,38.0000000000,121.0000000000,273.0000000000,443.0000000000,188.0000000000,19.0000000000
1717675352275,37.0000000000,120.0000000000,271.0000000000,438.0000000000,186.0000000000,19.0000000000
1717675352275,37.0000000000,120.0000000000,270.0000000000,435.0000000000,209.0000000000,19.0000000000
1717675352276,36.0000000000,119.0000000000,268.0000000000,431.0000000000,207.0000000000,19.0000000000
1717675352276,36.0000000000,118.0000000000,265.0000000000,427.0000000000,206.0000000000,19.0000000000
1717675352276,36.0000000000,118.0000000000,263.0000000000,423.0000000000,204.0000000000,19.0000000000
1717675352276,35.0000000000,116.0000000000,262.0000000000,419.0000000000,203.0000000000,19.0000000000
1717675352289,35.0000000000,116.0000000000,260.0000000000,415.0000000000,201.0000000000,19.0000000000
1717675352289,35.0000000000,115.0000000000,258.0000000000,412.0000000000,199.0000000000,19.0000000000
1717675352289,35.0000000000,115.0000000000,255.0000000000,409.0000000000,199.0000000000,18.0000000000
1717675352289,35.0000000000,114.0000000000,255.0000000000,406.0000000000,198.0000000000,18.0000000000
1717675352289,35.0000000000,113.0000000000,254.0000000000,403.0000000000,195.0000000000,18.0000000000
1717675352290,34.0000000000,112.0000000000,252.0000000000,399.0000000000,195.0000000000,18.0000000000
1717675352290,34.0000000000,112.0000000000,251.0000000000,396.0000000000,193.0000000000,17.0000000000
1717675352290,34.0000000000,111.0000000000,248.0000000000,392.0000000000,192.0000000000,17.0000000000
1717675352291,33.0000000000,110.0000000000,248.0000000000,390.0000000000,191.0000000000,18.0000000000
1717675352305,33.0000000000,110.0000000000,245.0000000000,387.0000000000,190.0000000000,17.0000000000
1717675352308,33.0000000000,141.0000000000,243.0000000000,384.0000000000,188.0000000000,17.0000000000
1717675352309,33.0000000000,140.0000000000,242.0000000000,382.0000000000,187.0000000000,17.0000000000
1717675352310,33.0000000000,140.0000000000,240.0000000000,379.0000000000,185.0000000000,17.0000000000
1717675352310,33.0000000000,138.0000000000,239.0000000000,376.0000000000,184.0000000000,17.0000000000
1717675352310,31.0000000000,137.0000000000,237.0000000000,374.0000000000,184.0000000000,16.0000000000
1717675352311,32.0000000000,136.0000000000,236.0000000000,371.0000000000,183.0000000000,16.0000000000
1717675352311,31.0000000000,135.0000000000,235.0000000000,368.0000000000,181.0000000000,17.0000000000
1717675352311,31.0000000000,135.0000000000,232.0000000000,365.0000000000,180.0000000000,16.0000000000
1717675352312,31.0000000000,134.0000000000,231.0000000000,362.0000000000,179.0000000000,16.0000000000
1717675352333,31.0000000000,132.0000000000,230.0000000000,359.0000000000,177.0000000000,16.0000000000
1717675352334,31.0000000000,136.0000000000,228.0000000000,357.0000000000,176.0000000000,16.0000000000
1717675352334,31.0000000000,135.0000000000,227.0000000000,355.0000000000,176.0000000000,15.0000000000
1717675352334,31.0000000000,135.0000000000,226.0000000000,352.0000000000,175.0000000000,15.0000000000
1717675352334,31.0000000000,134.0000000000,224.0000000000,350.0000000000,174.0000000000,15.0000000000
1717675352334,30.0000000000,133.0000000000,223.0000000000,347.0000000000,172.0000000000,15.0000000000
1717675352334,30.0000000000,131.0000000000,222.0000000000,345.0000000000,172.0000000000,15.0000000000
1717675352334,30.0000000000,131.0000000000,220.0000000000,343.0000000000,169.0000000000,15.0000000000
1717675352335,30.0000000000,129.0000000000,219.0000000000,340.0000000000,167.0000000000,15.0000000000
1717675352335,29.0000000000,129.0000000000,217.0000000000,339.0000000000,167.0000000000,15.0000000000
1717675352335,29.0000000000,127.0000000000,216.0000000000,335.0000000000,167.0000000000,15.0000000000
1717675352335,29.0000000000,127.0000000000,215.0000000000,334.0000000000,166.0000000000,15.0000000000
1717675352335,29.0000000000,127.0000000000,214.0000000000,332.0000000000,164.0000000000,15.0000000000
1717675352357,29.0000000000,126.0000000000,212.0000000000,329.0000000000,167.0000000000,14.0000000000
1717675352357,28.0000000000,125.0000000000,211.0000000000,327.0000000000,166.0000000000,15.0000000000
1717675352358,28.0000000000,124.0000000000,211.0000000000,324.0000000000,165.0000000000,15.0000000000
1717675352358,28.0000000000,124.0000000000,209.0000000000,326.0000000000,163.0000000000,15.0000000000
1717675352358,28.0000000000,123.0000000000,207.0000000000,323.0000000000,163.0000000000,15.0000000000
1717675352358,28.0000000000,121.0000000000,207.0000000000,321.0000000000,162.0000000000,14.0000000000
1717675352358,27.0000000000,121.0000000000,236.0000000000,366.0000000000,161.0000000000,15.0000000000
1717675352358,28.0000000000,120.0000000000,271.0000000000,405.0000000000,159.0000000000,14.0000000000
1717675352359,27.0000000000,120.0000000000,270.0000000000,401.0000000000,158.0000000000,14.0000000000
1717675352359,27.0000000000,119.0000000000,268.0000000000,397.0000000000,158.0000000000,14.0000000000
1717675352374,27.0000000000,118.0000000000,265.0000000000,393.0000000000,156.0000000000,13.0000000000
1717675352375,26.0000000000,118.0000000000,263.0000000000,391.0000000000,156.0000000000,14.0000000000
1717675352375,27.0000000000,116.0000000000,262.0000000000,387.0000000000,155.0000000000,13.0000000000
1717675352375,26.0000000000,115.0000000000,260.0000000000,384.0000000000,153.0000000000,14.0000000000
1717675352376,25.0000000000,115.0000000000,258.0000000000,380.0000000000,152.0000000000,14.0000000000
1717675352376,26.0000000000,114.0000000000,255.0000000000,376.0000000000,152.0000000000,13.0000000000
1717675352376,25.0000000000,113.0000000000,255.0000000000,374.0000000000,152.0000000000,14.0000000000
1717675352376,25.0000000000,113.0000000000,253.0000000000,370.0000000000,151.0000000000,13.0000000000
1717675352376,25.0000000000,112.0000000000,252.0000000000,368.0000000000,150.0000000000,13.0000000000
1717675352377,25.0000000000,111.0000000000,249.0000000000,364.0000000000,149.0000000000,13.0000000000
1717675352377,25.0000000000,111.0000000000,248.0000000000,361.0000000000,147.0000000000,12.0000000000
1717675352394,24.0000000000,110.0000000000,246.0000000000,359.0000000000,147.0000000000,12.0000000000
1717675352395,24.0000000000,109.0000000000,244.0000000000,356.0000000000,145.0000000000,13.0000000000
1717675352395,24.0000000000,109.0000000000,243.0000000000,353.0000000000,145.0000000000,13.0000000000
1717675352395,24.0000000000,108.0000000000,241.0000000000,351.0000000000,144.0000000000,12.0000000000
1717675352395,24.0000000000,108.0000000000,240.0000000000,348.0000000000,143.0000000000,12.0000000000
1717675352395,24.0000000000,107.0000000000,238.0000000000,345.0000000000,143.0000000000,12.0000000000
1717675352396,24.0000000000,106.0000000000,236.0000000000,343.0000000000,142.0000000000,12.0000000000
1717675352396,24.0000000000,105.0000000000,235.0000000000,339.0000000000,141.0000000000,12.0000000000
1717675352411,24.0000000000,103.0000000000,233.0000000000,337.0000000000,140.0000000000,12.0000000000
1717675352411,24.0000000000,103.0000000000,231.0000000000,335.0000000000,140.0000000000,12.0000000000
1717675352412,23.0000000000,103.0000000000,231.0000000000,332.0000000000,138.0000000000,12.0000000000
1717675352412,24.0000000000,103.0000000000,229.0000000000,358.0000000000,137.0000000000,11.0000000000
1717675352412,23.0000000000,103.0000000000,227.0000000000,467.0000000000,137.0000000000,12.0000000000
1717675352412,23.0000000000,102.0000000000,227.0000000000,461.0000000000,135.0000000000,12.0000000000
1717675352412,23.0000000000,101.0000000000,224.0000000000,457.0000000000,135.0000000000,11.0000000000
1717675352412,22.0000000000,100.0000000000,224.0000000000,454.0000000000,135.0000000000,12.0000000000
1717675352427,22.0000000000,99.0000000000,222.0000000000,449.0000000000,134.0000000000,12.0000000000
1717675352428,22.0000000000,99.0000000000,220.0000000000,444.0000000000,133.0000000000,11.0000000000
1717675352428,22.0000000000,99.0000000000,219.0000000000,440.0000000000,132.0000000000,11.0000000000
1717675352428,22.0000000000,98.0000000000,217.0000000000,438.0000000000,131.0000000000,11.0000000000
1717675352428,22.0000000000,97.0000000000,216.0000000000,433.0000000000,131.0000000000,11.0000000000
1717675352428,22.0000000000,97.0000000000,216.0000000000,495.0000000000,130.0000000000,11.0000000000
1717675352429,22.0000000000,97.0000000000,214.0000000000,489.0000000000,129.0000000000,11.0000000000
1717675352429,21.0000000000,96.0000000000,213.0000000000,486.0000000000,129.0000000000,11.0000000000
1717675352429,20.0000000000,96.0000000000,211.0000000000,481.0000000000,127.0000000000,11.0000000000
1717675352445,21.0000000000,95.0000000000,210.0000000000,476.0000000000,127.0000000000,11.0000000000
1717675352446,24.0000000000,95.0000000000,209.0000000000,472.0000000000,127.0000000000,10.0000000000
1717675352446,25.0000000000,94.0000000000,207.0000000000,467.0000000000,126.0000000000,10.0000000000
1717675352446,26.0000000000,93.0000000000,267.0000000000,464.0000000000,125.0000000000,10.0000000000
1717675352446,25.0000000000,130.0000000000,292.0000000000,460.0000000000,167.0000000000,10.0000000000
1717675352446,25.0000000000,192.0000000000,289.0000000000,455.0000000000,167.0000000000,10.0000000000
1717675352446,24.0000000000,190.0000000000,287.0000000000,451.0000000000,165.0000000000,10.0000000000
1717675352446,25.0000000000,188.0000000000,284.0000000000,448.0000000000,164.0000000000,10.0000000000
1717675352446,25.0000000000,186.0000000000,284.0000000000,444.0000000000,163.0000000000,9.0000000000
1717675352446,25.0000000000,185.0000000000,280.0000000000,440.0000000000,162.0000000000,9.0000000000
1717675352447,24.0000000000,184.0000000000,280.0000000000,436.0000000000,161.0000000000,9.0000000000
1717675352462,24.0000000000,183.0000000000,276.0000000000,432.0000000000,159.0000000000,9.0000000000
1717675352467,24.0000000000,181.0000000000,275.0000000000,429.0000000000,159.0000000000,9.0000000000
1717675352467,24.0000000000,179.0000000000,273.0000000000,425.0000000000,158.0000000000,9.0000000000
1717675352468,24.0000000000,179.0000000000,271.0000000000,423.0000000000,157.0000000000,9.0000000000
1717675352468,24.0000000000,177.0000000000,270.0000000000,419.0000000000,156.0000000000,9.0000000000
1717675352469,24.0000000000,176.0000000000,268.0000000000,415.0000000000,155.0000000000,9.0000000000
1717675352469,24.0000000000,176.0000000000,267.0000000000,412.0000000000,154.0000000000,9.0000000000
1717675352470,23.0000000000,174.0000000000,263.0000000000,408.0000000000,153.0000000000,9.0000000000
1717675352470,23.0000000000,173.0000000000,263.0000000000,406.0000000000,152.0000000000,9.0000000000
1717675352471,23.0000000000,172.0000000000,260.0000000000,403.0000000000,152.0000000000,9.0000000000
1717675352471,23.0000000000,171.0000000000,259.0000000000,399.0000000000,151.0000000000,8.0000000000
1717675352472,23.0000000000,169.0000000000,257.0000000000,396.0000000000,150.0000000000,9.0000000000
1717675352472,22.0000000000,167.0000000000,255.0000000000,455.0000000000,148.0000000000,9.0000000000
1717675352494,23.0000000000,167.0000000000,254.0000000000,539.0000000000,147.0000000000,9.0000000000
1717675352495,23.0000000000,166.0000000000,252.0000000000,532.0000000000,147.0000000000,9.0000000000
1717675352495,22.0000000000,166.0000000000,251.0000000000,527.0000000000,145.0000000000,7.0000000000
1717675352495,23.0000000000,164.0000000000,249.0000000000,523.0000000000,145.0000000000,8.0000000000
1717675352495,22.0000000000,163.0000000000,248.0000000000,518.0000000000,143.0000000000,7.0000000000
1717675352495,22.0000000000,162.0000000000,247.0000000000,512.0000000000,143.0000000000,8.0000000000
1717675352495,22.0000000000,161.0000000000,245.0000000000,507.0000000000,142.0000000000,7.0000000000
1717675352495,22.0000000000,159.0000000000,243.0000000000,504.0000000000,141.0000000000,8.0000000000
1717675352495,22.0000000000,159.0000000000,242.0000000000,499.0000000000,140.0000000000,8.0000000000
1717675352495,22.0000000000,158.0000000000,240.0000000000,494.0000000000,140.0000000000,8.0000000000
1717675352496,22.0000000000,157.0000000000,239.0000000000,489.0000000000,139.0000000000,7.0000000000
1717675352496,22.0000000000,156.0000000000,238.0000000000,486.0000000000,137.0000000000,7.0000000000
1717675352496,22.0000000000,155.0000000000,236.0000000000,481.0000000000,136.0000000000,7.0000000000
1717675352509,22.0000000000,155.0000000000,235.0000000000,477.0000000000,135.0000000000,7.0000000000
1717675352509,21.0000000000,153.0000000000,233.0000000000,472.0000000000,135.0000000000,7.0000000000
1717675352510,21.0000000000,216.0000000000,254.0000000000,470.0000000000,135.0000000000,7.0000000000
1717675352510,20.0000000000,213.0000000000,399.0000000000,505.0000000000,134.0000000000,7.0000000000
1717675352510,20.0000000000,211.0000000000,395.0000000000,499.0000000000,134.0000000000,7.0000000000
1717675352510,20.0000000000,209.0000000000,391.0000000000,496.0000000000,132.0000000000,9.0000000000
1717675352510,32.0000000000,207.0000000000,387.0000000000,492.0000000000,131.0000000000,9.0000000000
1717675352539,31.0000000000,207.0000000000,384.0000000000,487.0000000000,131.0000000000,9.0000000000
1717675352540,31.0000000000,204.0000000000,380.0000000000,482.0000000000,130.0000000000,9.0000000000
1717675352540,31.0000000000,204.0000000000,379.0000000000,478.0000000000,129.0000000000,9.0000000000
1717675352540,31.0000000000,202.0000000000,376.0000000000,473.0000000000,128.0000000000,9.0000000000
1717675352540,31.0000000000,201.0000000000,372.0000000000,470.0000000000,129.0000000000,9.0000000000
1717675352540,31.0000000000,257.0000000000,369.0000000000,465.0000000000,128.0000000000,9.0000000000
1717675352540,30.0000000000,255.0000000000,368.0000000000,461.0000000000,127.0000000000,8.0000000000
1717675352540,30.0000000000,253.0000000000,364.0000000000,457.0000000000,127.0000000000,9.0000000000
1717675352541,30.0000000000,251.0000000000,361.0000000000,455.0000000000,127.0000000000,9.0000000000
1717675352541,30.0000000000,249.0000000000,359.0000000000,450.0000000000,126.0000000000,8.0000000000
1717675352541,30.0000000000,248.0000000000,357.0000000000,446.0000000000,125.0000000000,9.0000000000
1717675352542,30.0000000000,246.0000000000,354.0000000000,443.0000000000,124.0000000000,8.0000000000
1717675352542,30.0000000000,244.0000000000,352.0000000000,440.0000000000,124.0000000000,7.0000000000
1717675352542,30.0000000000,242.0000000000,349.0000000000,436.0000000000,123.0000000000,8.0000000000
1717675352542,29.0000000000,241.0000000000,347.0000000000,432.0000000000,123.0000000000,8.0000000000
1717675352543,29.0000000000,239.0000000000,344.0000000000,429.0000000000,121.0000000000,8.0000000000
1717675352543,29.0000000000,238.0000000000,343.0000000000,426.0000000000,131.0000000000,8.0000000000
1717675352558,29.0000000000,236.0000000000,339.0000000000,423.0000000000,129.0000000000,8.0000000000
1717675352559,29.0000000000,235.0000000000,338.0000000000,419.0000000000,129.0000000000,7.0000000000
1717675352559,28.0000000000,232.0000000000,335.0000000000,415.0000000000,172.0000000000,8.0000000000
1717675352560,28.0000000000,231.0000000000,333.0000000000,413.0000000000,171.0000000000,8.0000000000
1717675352560,28.0000000000,230.0000000000,331.0000000000,409.0000000000,169.0000000000,8.0000000000
1717675352560,28.0000000000,228.0000000000,328.0000000000,407.0000000000,167.0000000000,7.0000000000
1717675352560,28.0000000000,227.0000000000,327.0000000000,403.0000000000,167.0000000000,7.0000000000
1717675352560,27.0000000000,225.0000000000,324.0000000000,401.0000000000,167.0000000000,7.0000000000
1717675352560,27.0000000000,224.0000000000,322.0000000000,398.0000000000,164.0000000000,7.0000000000
1717675352577,27.0000000000,223.0000000000,319.0000000000,394.0000000000,163.0000000000,7.0000000000
1717675352578,27.0000000000,221.0000000000,319.0000000000,391.0000000000,163.0000000000,7.0000000000
1717675352578,27.0000000000,220.0000000000,316.0000000000,388.0000000000,162.0000000000,7.0000000000
1717675352578,27.0000000000,219.0000000000,313.0000000000,385.0000000000,160.0000000000,7.0000000000
1717675352578,26.0000000000,217.0000000000,312.0000000000,383.0000000000,159.0000000000,7.0000000000
1717675352578,26.0000000000,216.0000000000,310.0000000000,380.0000000000,159.0000000000,7.0000000000
1717675352579,25.0000000000,214.0000000000,307.0000000000,377.0000000000,158.0000000000,7.0000000000
1717675352579,26.0000000000,213.0000000000,305.0000000000,375.0000000000,156.0000000000,7.0000000000
1717675352579,25.0000000000,211.0000000000,304.0000000000,372.0000000000,155.0000000000,7.0000000000
1717675352579,25.0000000000,210.0000000000,303.0000000000,369.0000000000,155.0000000000,7.0000000000
1717675352579,25.0000000000,209.0000000000,300.0000000000,367.0000000000,154.0000000000,7.0000000000
1717675352598,24.0000000000,207.0000000000,299.0000000000,364.0000000000,152.0000000000,7.0000000000
1717675352599,25.0000000000,207.0000000000,295.0000000000,361.0000000000,152.0000000000,7.0000000000
1717675352599,24.0000000000,205.0000000000,295.0000000000,359.0000000000,151.0000000000,7.0000000000
1717675352599,24.0000000000,204.0000000000,294.0000000000,356.0000000000,150.0000000000,7.0000000000
1717675352599,24.0000000000,203.0000000000,291.0000000000,355.0000000000,149.0000000000,7.0000000000
1717675352599,24.0000000000,201.0000000000,289.0000000000,352.0000000000,148.0000000000,7.0000000000
1717675352600,24.0000000000,199.0000000000,287.0000000000,349.0000000000,147.0000000000,7.0000000000
1717675352600,24.0000000000,199.0000000000,286.0000000000,347.0000000000,147.0000000000,7.0000000000
1717675352600,24.0000000000,198.0000000000,284.0000000000,345.0000000000,145.0000000000,7.0000000000
1717675352600,24.0000000000,196.0000000000,283.0000000000,343.0000000000,143.0000000000,7.0000000000
1717675352600,24.0000000000,195.0000000000,281.0000000000,340.0000000000,186.0000000000,7.0000000000
1717675352615,24.0000000000,194.0000000000,280.0000000000,337.0000000000,184.0000000000,7.0000000000
1717675352615,23.0000000000,193.0000000000,278.0000000000,335.0000000000,183.0000000000,7.0000000000
1717675352615,23.0000000000,192.0000000000,275.0000000000,364.0000000000,181.0000000000,7.0000000000
1717675352616,23.0000000000,191.0000000000,275.0000000000,361.0000000000,180.0000000000,7.0000000000
1717675352616,23.0000000000,190.0000000000,272.0000000000,358.0000000000,179.0000000000,7.0000000000
1717675352616,23.0000000000,189.0000000000,271.0000000000,355.0000000000,177.0000000000,6.0000000000
1717675352616,22.0000000000,188.0000000000,269.0000000000,352.0000000000,176.0000000000,7.0000000000
1717675352616,22.0000000000,186.0000000000,268.0000000000,350.0000000000,176.0000000000,7.0000000000
1717675352616,22.0000000000,185.0000000000,266.0000000000,347.0000000000,174.0000000000,6.0000000000
1717675352630,22.0000000000,184.0000000000,264.0000000000,344.0000000000,173.0000000000,7.0000000000
1717675352631,22.0000000000,184.0000000000,263.0000000000,342.0000000000,172.0000000000,7.0000000000
1717675352631,22.0000000000,182.0000000000,262.0000000000,339.0000000000,171.0000000000,7.0000000000
1717675352631,22.0000000000,180.0000000000,260.0000000000,336.0000000000,169.0000000000,7.0000000000
1717675352631,22.0000000000,180.0000000000,259.0000000000,334.0000000000,167.0000000000,6.0000000000
1717675352631,22.0000000000,179.0000000000,257.0000000000,409.0000000000,167.0000000000,6.0000000000
1717675352631,21.0000000000,178.0000000000,291.0000000000,406.0000000000,167.0000000000,6.0000000000
1717675352631,21.0000000000,177.0000000000,399.0000000000,401.0000000000,166.0000000000,6.0000000000
1717675352646,21.0000000000,176.0000000000,395.0000000000,398.0000000000,164.0000000000,6.0000000000
1717675352647,21.0000000000,175.0000000000,391.0000000000,396.0000000000,163.0000000000,6.0000000000
1717675352647,20.0000000000,174.0000000000,387.0000000000,391.0000000000,163.0000000000,6.0000000000
1717675352647,20.0000000000,172.0000000000,385.0000000000,388.0000000000,161.0000000000,6.0000000000
1717675352647,20.0000000000,172.0000000000,382.0000000000,432.0000000000,160.0000000000,6.0000000000
1717675352647,20.0000000000,171.0000000000,379.0000000000,428.0000000000,159.0000000000,6.0000000000
1717675352647,20.0000000000,170.0000000000,376.0000000000,423.0000000000,159.0000000000,6.0000000000
1717675352647,19.0000000000,169.0000000000,373.0000000000,419.0000000000,158.0000000000,6.0000000000
1717675352647,19.0000000000,167.0000000000,370.0000000000,415.0000000000,156.0000000000,6.0000000000
1717675352661,19.0000000000,167.0000000000,368.0000000000,412.0000000000,156.0000000000,5.0000000000
1717675352662,19.0000000000,166.0000000000,364.0000000000,408.0000000000,155.0000000000,6.0000000000
1717675352662,19.0000000000,165.0000000000,363.0000000000,405.0000000000,154.0000000000,6.0000000000
1717675352662,19.0000000000,164.0000000000,359.0000000000,401.0000000000,153.0000000000,5.0000000000
1717675352662,19.0000000000,163.0000000000,357.0000000000,399.0000000000,152.0000000000,6.0000000000
1717675352662,19.0000000000,163.0000000000,355.0000000000,396.0000000000,204.0000000000,5.0000000000
1717675352662,19.0000000000,161.0000000000,353.0000000000,391.0000000000,216.0000000000,5.0000000000
1717675352663,19.0000000000,160.0000000000,350.0000000000,388.0000000000,214.0000000000,5.0000000000
1717675352663,19.0000000000,159.0000000000,347.0000000000,386.0000000000,211.0000000000,5.0000000000
1717675352676,18.0000000000,159.0000000000,344.0000000000,383.0000000000,210.0000000000,5.0000000000
1717675352677,18.0000000000,158.0000000000,342.0000000000,380.0000000000,209.0000000000,5.0000000000
1717675352677,18.0000000000,157.0000000000,340.0000000000,376.0000000000,207.0000000000,5.0000000000
1717675352677,18.0000000000,156.0000000000,338.0000000000,374.0000000000,206.0000000000,5.0000000000
1717675352677,18.0000000000,156.0000000000,335.0000000000,371.0000000000,204.0000000000,5.0000000000
1717675352677,17.0000000000,154.0000000000,334.0000000000,368.0000000000,203.0000000000,5.0000000000
1717675352678,18.0000000000,153.0000000000,332.0000000000,366.0000000000,202.0000000000,4.0000000000
1717675352691,17.0000000000,152.0000000000,329.0000000000,391.0000000000,200.0000000000,4.0000000000
1717675352693,17.0000000000,152.0000000000,327.0000000000,388.0000000000,199.0000000000,5.0000000000
1717675352694,17.0000000000,152.0000000000,324.0000000000,384.0000000000,198.0000000000,4.0000000000
1717675352694,17.0000000000,150.0000000000,323.0000000000,381.0000000000,197.0000000000,5.0000000000
1717675352694,17.0000000000,149.0000000000,319.0000000000,379.0000000000,195.0000000000,4.0000000000
1717675352694,17.0000000000,148.0000000000,318.0000000000,376.0000000000,194.0000000000,5.0000000000
1717675352695,18.0000000000,147.0000000000,316.0000000000,372.0000000000,193.0000000000,4.0000000000
1717675352695,18.0000000000,147.0000000000,315.0000000000,369.0000000000,192.0000000000,4.0000000000
1717675352695,18.0000000000,145.0000000000,312.0000000000,366.0000000000,191.0000000000,4.0000000000
1717675352696,18.0000000000,145.0000000000,310.0000000000,364.0000000000,190.0000000000,4.0000000000
1717675352696,18.0000000000,144.0000000000,308.0000000000,361.0000000000,188.0000000000,4.0000000000
1717675352717,17.0000000000,143.0000000000,307.0000000000,358.0000000000,187.0000000000,4.0000000000
1717675352719,17.0000000000,142.0000000000,304.0000000000,355.0000000000,187.0000000000,4.0000000000
1717675352720,17.0000000000,142.0000000000,302.0000000000,353.0000000000,185.0000000000,4.0000000000
1717675352720,17.0000000000,142.0000000000,300.0000000000,351.0000000000,184.0000000000,3.0000000000
1717675352720,17.0000000000,140.0000000000,299.0000000000,348.0000000000,183.0000000000,4.0000000000
1717675352720,17.0000000000,140.0000000000,297.0000000000,345.0000000000,182.0000000000,4.0000000000
1717675352721,24.0000000000,169.0000000000,295.0000000000,344.0000000000,188.0000000000,4.0000000000
1717675352721,26.0000000000,167.0000000000,294.0000000000,472.0000000000,251.0000000000,5.0000000000
1717675352721,25.0000000000,166.0000000000,291.0000000000,465.0000000000,249.0000000000,5.0000000000
1717675352721,25.0000000000,164.0000000000,289.0000000000,461.0000000000,248.0000000000,5.0000000000
1717675352722,25.0000000000,163.0000000000,287.0000000000,457.0000000000,255.0000000000,4.0000000000
1717675352722,25.0000000000,162.0000000000,286.0000000000,453.0000000000,254.0000000000,4.0000000000
1717675352722,24.0000000000,161.0000000000,284.0000000000,448.0000000000,252.0000000000,5.0000000000
1717675352738,24.0000000000,160.0000000000,284.0000000000,444.0000000000,249.0000000000,5.0000000000
1717675352739,24.0000000000,159.0000000000,281.0000000000,440.0000000000,248.0000000000,5.0000000000
1717675352739,24.0000000000,159.0000000000,280.0000000000,437.0000000000,246.0000000000,4.0000000000
1717675352739,24.0000000000,157.0000000000,278.0000000000,433.0000000000,243.0000000000,5.0000000000
1717675352739,24.0000000000,156.0000000000,276.0000000000,429.0000000000,243.0000000000,4.0000000000
1717675352739,24.0000000000,155.0000000000,275.0000000000,425.0000000000,241.0000000000,4.0000000000
1717675352739,24.0000000000,153.0000000000,272.0000000000,423.0000000000,240.0000000000,4.0000000000
1717675352739,24.0000000000,153.0000000000,271.0000000000,419.0000000000,238.0000000000,4.0000000000
1717675352755,23.0000000000,152.0000000000,270.0000000000,415.0000000000,236.0000000000,4.0000000000
1717675352756,24.0000000000,151.0000000000,268.0000000000,412.0000000000,235.0000000000,4.0000000000
1717675352756,23.0000000000,151.0000000000,266.0000000000,409.0000000000,233.0000000000,4.0000000000
1717675352756,23.0000000000,149.0000000000,265.0000000000,406.0000000000,231.0000000000,4.0000000000
1717675352756,23.0000000000,148.0000000000,263.0000000000,402.0000000000,231.0000000000,4.0000000000
1717675352756,23.0000000000,147.0000000000,262.0000000000,399.0000000000,228.0000000000,4.0000000000
1717675352757,22.0000000000,147.0000000000,260.0000000000,396.0000000000,227.0000000000,4.0000000000
1717675352757,22.0000000000,145.0000000000,259.0000000000,392.0000000000,225.0000000000,4.0000000000
1717675352757,22.0000000000,145.0000000000,257.0000000000,390.0000000000,224.0000000000,4.0000000000
1717675352757,22.0000000000,143.0000000000,255.0000000000,387.0000000000,223.0000000000,4.0000000000
1717675352757,22.0000000000,143.0000000000,255.0000000000,384.0000000000,222.0000000000,3.0000000000
1717675352793,22.0000000000,142.0000000000,253.0000000000,382.0000000000,220.0000000000,4.0000000000
1717675352794,22.0000000000,142.0000000000,252.0000000000,379.0000000000,219.0000000000,3.0000000000
1717675352794,22.0000000000,140.0000000000,250.0000000000,376.0000000000,217.0000000000,4.0000000000
1717675352795,20.0000000000,193.0000000000,248.0000000000,372.0000000000,216.0000000000,3.0000000000
1717675352795,21.0000000000,192.0000000000,270.0000000000,369.0000000000,215.0000000000,4.0000000000
1717675352796,20.0000000000,190.0000000000,268.0000000000,367.0000000000,214.0000000000,3.0000000000
1717675352796,26.0000000000,189.0000000000,276.0000000000,364.0000000000,212.0000000000,3.0000000000
1717675352796,25.0000000000,188.0000000000,273.0000000000,362.0000000000,211.0000000000,3.0000000000
1717675352796,25.0000000000,187.0000000000,271.0000000000,409.0000000000,209.0000000000,3.0000000000
1717675352796,25.0000000000,185.0000000000,270.0000000000,405.0000000000,209.0000000000,3.0000000000
1717675352796,25.0000000000,184.0000000000,268.0000000000,401.0000000000,207.0000000000,3.0000000000
1717675352796,25.0000000000,183.0000000000,266.0000000000,398.0000000000,206.0000000000,3.0000000000
1717675352796,25.0000000000,182.0000000000,263.0000000000,395.0000000000,204.0000000000,3.0000000000
1717675352797,24.0000000000,180.0000000000,262.0000000000,391.0000000000,203.0000000000,3.0000000000
1717675352797,24.0000000000,179.0000000000,261.0000000000,387.0000000000,202.0000000000,3.0000000000
1717675352797,24.0000000000,178.0000000000,259.0000000000,384.0000000000,201.0000000000,3.0000000000
1717675352797,24.0000000000,177.0000000000,257.0000000000,382.0000000000,199.0000000000,3.0000000000
1717675352797,24.0000000000,176.0000000000,255.0000000000,379.0000000000,199.0000000000,3.0000000000
1717675352797,24.0000000000,175.0000000000,254.0000000000,376.0000000000,198.0000000000,3.0000000000
1717675352797,24.0000000000,173.0000000000,252.0000000000,372.0000000000,195.0000000000,3.0000000000
1717675352812,23.0000000000,177.0000000000,251.0000000000,370.0000000000,195.0000000000,3.0000000000
1717675352813,24.0000000000,188.0000000000,249.0000000000,367.0000000000,193.0000000000,3.0000000000
1717675352813,23.0000000000,185.0000000000,248.0000000000,364.0000000000,240.0000000000,3.0000000000
1717675352813,22.0000000000,184.0000000000,246.0000000000,361.0000000000,238.0000000000,3.0000000000
1717675352813,23.0000000000,184.0000000000,244.0000000000,359.0000000000,236.0000000000,3.0000000000
1717675352813,23.0000000000,183.0000000000,243.0000000000,355.0000000000,235.0000000000,3.0000000000
1717675352814,23.0000000000,181.0000000000,242.0000000000,353.0000000000,232.0000000000,3.0000000000
1717675352814,27.0000000000,179.0000000000,271.0000000000,351.0000000000,231.0000000000,7.0000000000
1717675352814,28.0000000000,178.0000000000,270.0000000000,349.0000000000,229.0000000000,7.0000000000
1717675352830,27.0000000000,177.0000000000,268.0000000000,346.0000000000,227.0000000000,7.0000000000
1717675352831,27.0000000000,176.0000000000,265.0000000000,344.0000000000,226.0000000000,7.0000000000
1717675352831,27.0000000000,175.0000000000,263.0000000000,350.0000000000,225.0000000000,7.0000000000
1717675352831,27.0000000000,174.0000000000,262.0000000000,409.0000000000,224.0000000000,7.0000000000
1717675352832,26.0000000000,172.0000000000,259.0000000000,404.0000000000,222.0000000000,7.0000000000
1717675352832,26.0000000000,172.0000000000,258.0000000000,401.0000000000,220.0000000000,7.0000000000
1717675352832,25.0000000000,171.0000000000,255.0000000000,398.0000000000,219.0000000000,7.0000000000
1717675352832,26.0000000000,169.0000000000,255.0000000000,395.0000000000,217.0000000000,7.0000000000
1717675352833,25.0000000000,168.0000000000,253.0000000000,391.0000000000,216.0000000000,7.0000000000
1717675352833,25.0000000000,167.0000000000,252.0000000000,387.0000000000,215.0000000000,7.0000000000
1717675352833,25.0000000000,167.0000000000,249.0000000000,384.0000000000,214.0000000000,7.0000000000
1717675352863,24.0000000000,165.0000000000,248.0000000000,381.0000000000,212.0000000000,7.0000000000
1717675352863,24.0000000000,164.0000000000,247.0000000000,379.0000000000,211.0000000000,7.0000000000
1717675352863,24.0000000000,163.0000000000,245.0000000000,376.0000000000,209.0000000000,7.0000000000
1717675352863,24.0000000000,162.0000000000,263.0000000000,372.0000000000,208.0000000000,7.0000000000
1717675352863,24.0000000000,161.0000000000,281.0000000000,369.0000000000,207.0000000000,7.0000000000
1717675352863,24.0000000000,160.0000000000,279.0000000000,367.0000000000,206.0000000000,7.0000000000
1717675352864,24.0000000000,159.0000000000,277.0000000000,364.0000000000,204.0000000000,7.0000000000
1717675352864,24.0000000000,158.0000000000,275.0000000000,360.0000000000,204.0000000000,7.0000000000
1717675352864,24.0000000000,157.0000000000,273.0000000000,358.0000000000,202.0000000000,6.0000000000
1717675352864,23.0000000000,156.0000000000,271.0000000000,356.0000000000,200.0000000000,7.0000000000
1717675352864,23.0000000000,156.0000000000,269.0000000000,382.0000000000,199.0000000000,7.0000000000
1717675352864,23.0000000000,155.0000000000,268.0000000000,377.0000000000,199.0000000000,6.0000000000
1717675352864,23.0000000000,153.0000000000,265.0000000000,375.0000000000,198.0000000000,6.0000000000
1717675352864,23.0000000000,153.0000000000,263.0000000000,371.0000000000,195.0000000000,6.0000000000
1717675352864,23.0000000000,152.0000000000,262.0000000000,369.0000000000,195.0000000000,6.0000000000
1717675352864,23.0000000000,151.0000000000,260.0000000000,366.0000000000,193.0000000000,6.0000000000
1717675352865,22.0000000000,150.0000000000,259.0000000000,363.0000000000,192.0000000000,9.0000000000
1717675352879,22.0000000000,150.0000000000,257.0000000000,359.0000000000,191.0000000000,9.0000000000
1717675352879,22.0000000000,148.0000000000,255.0000000000,358.0000000000,190.0000000000,8.0000000000
1717675352879,22.0000000000,147.0000000000,254.0000000000,354.0000000000,189.0000000000,8.0000000000
1717675352879,22.0000000000,146.0000000000,252.0000000000,352.0000000000,188.0000000000,7.0000000000
1717675352880,22.0000000000,145.0000000000,251.0000000000,350.0000000000,187.0000000000,8.0000000000
1717675352880,22.0000000000,145.0000000000,249.0000000000,347.0000000000,185.0000000000,8.0000000000
1717675352880,22.0000000000,143.0000000000,248.0000000000,344.0000000000,184.0000000000,7.0000000000
1717675352893,22.0000000000,143.0000000000,246.0000000000,341.0000000000,184.0000000000,7.0000000000
1717675352895,22.0000000000,142.0000000000,243.0000000000,339.0000000000,183.0000000000,8.0000000000
1717675352895,21.0000000000,142.0000000000,243.0000000000,337.0000000000,182.0000000000,7.0000000000
1717675352895,21.0000000000,140.0000000000,240.0000000000,334.0000000000,180.0000000000,7.0000000000
1717675352895,21.0000000000,140.0000000000,240.0000000000,332.0000000000,179.0000000000,7.0000000000
1717675352895,21.0000000000,139.0000000000,238.0000000000,329.0000000000,178.0000000000,7.0000000000
1717675352895,21.0000000000,137.0000000000,237.0000000000,327.0000000000,177.0000000000,7.0000000000
1717675352895,20.0000000000,137.0000000000,236.0000000000,325.0000000000,176.0000000000,7.0000000000
1717675352896,20.0000000000,135.0000000000,235.0000000000,323.0000000000,176.0000000000,7.0000000000
1717675352912,20.0000000000,135.0000000000,233.0000000000,321.0000000000,175.0000000000,7.0000000000
1717675352913,19.0000000000,135.0000000000,231.0000000000,319.0000000000,173.0000000000,7.0000000000
1717675352913,19.0000000000,135.0000000000,231.0000000000,318.0000000000,223.0000000000,7.0000000000
1717675352913,19.0000000000,166.0000000000,231.0000000000,315.0000000000,221.0000000000,7.0000000000
1717675352913,19.0000000000,164.0000000000,230.0000000000,313.0000000000,220.0000000000,7.0000000000
1717675352913,19.0000000000,163.0000000000,227.0000000000,313.0000000000,217.0000000000,7.0000000000
1717675352913,19.0000000000,163.0000000000,227.0000000000,311.0000000000,216.0000000000,7.0000000000
1717675352913,21.0000000000,161.0000000000,225.0000000000,308.0000000000,216.0000000000,7.0000000000
1717675352913,20.0000000000,160.0000000000,224.0000000000,307.0000000000,214.0000000000,7.0000000000
1717675352914,20.0000000000,159.0000000000,224.0000000000,305.0000000000,211.0000000000,7.0000000000
1717675352914,20.0000000000,159.0000000000,222.0000000000,304.0000000000,211.0000000000,7.0000000000
1717675352930,20.0000000000,158.0000000000,221.0000000000,386.0000000000,209.0000000000,7.0000000000
1717675352930,19.0000000000,157.0000000000,220.0000000000,383.0000000000,207.0000000000,7.0000000000
1717675352931,20.0000000000,156.0000000000,252.0000000000,380.0000000000,206.0000000000,7.0000000000
1717675352931,19.0000000000,155.0000000000,251.0000000000,376.0000000000,205.0000000000,7.0000000000
1717675352931,19.0000000000,154.0000000000,249.0000000000,372.0000000000,204.0000000000,7.0000000000
1717675352931,19.0000000000,153.0000000000,248.0000000000,369.0000000000,202.0000000000,7.0000000000
1717675352931,19.0000000000,152.0000000000,245.0000000000,367.0000000000,201.0000000000,7.0000000000
1717675352931,19.0000000000,152.0000000000,243.0000000000,364.0000000000,199.0000000000,7.0000000000
1717675352951,19.0000000000,150.0000000000,242.0000000000,360.0000000000,199.0000000000,7.0000000000
1717675352952,19.0000000000,149.0000000000,240.0000000000,358.0000000000,198.0000000000,7.0000000000
1717675352952,19.0000000000,147.0000000000,239.0000000000,355.0000000000,196.0000000000,7.0000000000
1717675352952,19.0000000000,147.0000000000,237.0000000000,353.0000000000,195.0000000000,7.0000000000
1717675352952,18.0000000000,146.0000000000,236.0000000000,350.0000000000,193.0000000000,7.0000000000
1717675352952,18.0000000000,145.0000000000,235.0000000000,347.0000000000,193.0000000000,6.0000000000
1717675352952,18.0000000000,143.0000000000,232.0000000000,344.0000000000,192.0000000000,7.0000000000
1717675352952,18.0000000000,143.0000000000,234.0000000000,342.0000000000,190.0000000000,6.0000000000
1717675352952,18.0000000000,143.0000000000,231.0000000000,339.0000000000,189.0000000000,6.0000000000
1717675352953,17.0000000000,142.0000000000,231.0000000000,336.0000000000,188.0000000000,6.0000000000
1717675352953,18.0000000000,140.0000000000,229.0000000000,334.0000000000,187.0000000000,6.0000000000
1717675352967,18.0000000000,140.0000000000,227.0000000000,332.0000000000,185.0000000000,6.0000000000
1717675352968,18.0000000000,140.0000000000,226.0000000000,329.0000000000,184.0000000000,6.0000000000
1717675352968,17.0000000000,137.0000000000,225.0000000000,327.0000000000,184.0000000000,6.0000000000
1717675352968,17.0000000000,137.0000000000,224.0000000000,324.0000000000,183.0000000000,6.0000000000
1717675352968,17.0000000000,136.0000000000,222.0000000000,323.0000000000,181.0000000000,6.0000000000
1717675352969,17.0000000000,135.0000000000,220.0000000000,319.0000000000,180.0000000000,6.0000000000
1717675352969,17.0000000000,135.0000000000,220.0000000000,318.0000000000,179.0000000000,6.0000000000
1717675352969,17.0000000000,135.0000000000,219.0000000000,316.0000000000,177.0000000000,6.0000000000
1717675352969,17.0000000000,133.0000000000,217.0000000000,313.0000000000,176.0000000000,6.0000000000
1717675352984,17.0000000000,132.0000000000,216.0000000000,312.0000000000,175.0000000000,6.0000000000
1717675352984,17.0000000000,131.0000000000,215.0000000000,309.0000000000,175.0000000000,6.0000000000
1717675352984,17.0000000000,131.0000000000,214.0000000000,307.0000000000,174.0000000000,6.0000000000
1717675352985,15.0000000000,130.0000000000,212.0000000000,305.0000000000,173.0000000000,6.0000000000
1717675352985,16.0000000000,129.0000000000,211.0000000000,304.0000000000,172.0000000000,6.0000000000
1717675352985,16.0000000000,129.0000000000,211.0000000000,301.0000000000,171.0000000000,6.0000000000
1717675352985,16.0000000000,127.0000000000,209.0000000000,300.0000000000,169.0000000000,6.0000000000
1717675352985,15.0000000000,127.0000000000,207.0000000000,297.0000000000,168.0000000000,5.0000000000
1717675352985,16.0000000000,127.0000000000,207.0000000000,295.0000000000,167.0000000000,6.0000000000
1717675353001,15.0000000000,126.0000000000,206.0000000000,294.0000000000,167.0000000000,6.0000000000
1717675353002,15.0000000000,125.0000000000,204.0000000000,292.0000000000,166.0000000000,5.0000000000
1717675353002,15.0000000000,125.0000000000,204.0000000000,291.0000000000,164.0000000000,6.0000000000
1717675353002,15.0000000000,124.0000000000,203.0000000000,289.0000000000,164.0000000000,4.0000000000
1717675353002,15.0000000000,249.0000000000,201.0000000000,287.0000000000,163.0000000000,5.0000000000
1717675353003,15.0000000000,251.0000000000,199.0000000000,286.0000000000,162.0000000000,5.0000000000
1717675353003,15.0000000000,248.0000000000,199.0000000000,284.0000000000,161.0000000000,4.0000000000
1717675353003,15.0000000000,247.0000000000,198.0000000000,283.0000000000,159.0000000000,5.0000000000
1717675353003,15.0000000000,244.0000000000,197.0000000000,362.0000000000,159.0000000000,5.0000000000
1717675353004,15.0000000000,242.0000000000,196.0000000000,358.0000000000,159.0000000000,5.0000000000
1717675353004,15.0000000000,241.0000000000,195.0000000000,355.0000000000,158.0000000000,4.0000000000
1717675353020,15.0000000000,239.0000000000,194.0000000000,352.0000000000,157.0000000000,4.0000000000
1717675353021,15.0000000000,237.0000000000,193.0000000000,349.0000000000,156.0000000000,4.0000000000
1717675353021,16.0000000000,236.0000000000,192.0000000000,345.0000000000,156.0000000000,6.0000000000
1717675353021,19.0000000000,234.0000000000,191.0000000000,344.0000000000,155.0000000000,6.0000000000
1717675353021,19.0000000000,231.0000000000,190.0000000000,340.0000000000,153.0000000000,6.0000000000
1717675353021,19.0000000000,231.0000000000,189.0000000000,339.0000000000,152.0000000000,6.0000000000
1717675353021,19.0000000000,230.0000000000,188.0000000000,335.0000000000,152.0000000000,5.0000000000
1717675353022,19.0000000000,227.0000000000,188.0000000000,332.0000000000,151.0000000000,5.0000000000
1717675353037,19.0000000000,227.0000000000,186.0000000000,331.0000000000,150.0000000000,6.0000000000
1717675353038,19.0000000000,225.0000000000,184.0000000000,327.0000000000,149.0000000000,6.0000000000
1717675353038,19.0000000000,224.0000000000,184.0000000000,326.0000000000,148.0000000000,5.0000000000
1717675353038,18.0000000000,222.0000000000,184.0000000000,323.0000000000,147.0000000000,5.0000000000
1717675353038,18.0000000000,220.0000000000,183.0000000000,321.0000000000,147.0000000000,5.0000000000
1717675353038,20.0000000000,220.0000000000,198.0000000000,319.0000000000,146.0000000000,6.0000000000
1717675353039,20.0000000000,217.0000000000,196.0000000000,316.0000000000,145.0000000000,5.0000000000
1717675353039,20.0000000000,216.0000000000,195.0000000000,314.0000000000,145.0000000000,5.0000000000
1717675353039,19.0000000000,216.0000000000,318.0000000000,312.0000000000,195.0000000000,5.0000000000
1717675353054,19.0000000000,214.0000000000,322.0000000000,310.0000000000,193.0000000000,4.0000000000
1717675353055,19.0000000000,212.0000000000,319.0000000000,307.0000000000,192.0000000000,5.0000000000
1717675353055,19.0000000000,211.0000000000,316.0000000000,305.0000000000,191.0000000000,5.0000000000
1717675353055,19.0000000000,209.0000000000,313.0000000000,303.0000000000,189.0000000000,5.0000000000
1717675353055,19.0000000000,208.0000000000,312.0000000000,301.0000000000,188.0000000000,4.0000000000
1717675353055,19.0000000000,207.0000000000,310.0000000000,299.0000000000,187.0000000000,5.0000000000
1717675353055,19.0000000000,206.0000000000,307.0000000000,339.0000000000,186.0000000000,4.0000000000
1717675353056,19.0000000000,204.0000000000,305.0000000000,449.0000000000,184.0000000000,4.0000000000
1717675353056,19.0000000000,203.0000000000,303.0000000000,445.0000000000,184.0000000000,4.0000000000
1717675353071,19.0000000000,203.0000000000,300.0000000000,440.0000000000,182.0000000000,4.0000000000
1717675353071,19.0000000000,200.0000000000,299.0000000000,436.0000000000,182.0000000000,4.0000000000
1717675353071,19.0000000000,199.0000000000,297.0000000000,432.0000000000,179.0000000000,4.0000000000
1717675353071,19.0000000000,199.0000000000,295.0000000000,429.0000000000,178.0000000000,4.0000000000
1717675353071,18.0000000000,198.0000000000,292.0000000000,425.0000000000,177.0000000000,4.0000000000
1717675353071,18.0000000000,196.0000000000,291.0000000000,421.0000000000,176.0000000000,4.0000000000
1717675353072,18.0000000000,195.0000000000,289.0000000000,417.0000000000,175.0000000000,4.0000000000
1717675353072,18.0000000000,194.0000000000,287.0000000000,415.0000000000,174.0000000000,4.0000000000
1717675353072,18.0000000000,193.0000000000,284.0000000000,412.0000000000,173.0000000000,5.0000000000
1717675353096,17.0000000000,192.0000000000,284.0000000000,408.0000000000,172.0000000000,4.0000000000
1717675353097,17.0000000000,190.0000000000,281.0000000000,404.0000000000,171.0000000000,4.0000000000
1717675353097,17.0000000000,190.0000000000,280.0000000000,401.0000000000,169.0000000000,3.0000000000
1717675353097,17.0000000000,188.0000000000,278.0000000000,399.0000000000,168.0000000000,4.0000000000
1717675353098,17.0000000000,187.0000000000,276.0000000000,395.0000000000,167.0000000000,4.0000000000
1717675353098,17.0000000000,185.0000000000,275.0000000000,391.0000000000,167.0000000000,3.0000000000
1717675353098,17.0000000000,184.0000000000,368.0000000000,388.0000000000,166.0000000000,4.0000000000
1717675353098,17.0000000000,184.0000000000,364.0000000000,385.0000000000,164.0000000000,4.0000000000
1717675353099,16.0000000000,183.0000000000,361.0000000000,383.0000000000,163.0000000000,4.0000000000
1717675353099,16.0000000000,182.0000000000,358.0000000000,380.0000000000,163.0000000000,3.0000000000
1717675353099,17.0000000000,180.0000000000,355.0000000000,377.0000000000,161.0000000000,4.0000000000
1717675353099,16.0000000000,179.0000000000,352.0000000000,374.0000000000,161.0000000000,3.0000000000
1717675353100,15.0000000000,178.0000000000,350.0000000000,371.0000000000,159.0000000000,3.0000000000
1717675353100,16.0000000000,177.0000000000,348.0000000000,368.0000000000,159.0000000000,3.0000000000
1717675353100,15.0000000000,176.0000000000,345.0000000000,366.0000000000,158.0000000000,3.0000000000
1717675353130,15.0000000000,181.0000000000,343.0000000000,364.0000000000,156.0000000000,3.0000000000
