timestamp,Channel 1,Channel 2,Channel 3,Channel 4,Channel 5,Channel 6
1717675307774,7.0000000000,0.0000000000,0.0000000000,0.0000000000,28.0000000000,6.0000000000
1717675307776,7.0000000000,0.0000000000,0.0000000000,0.0000000000,27.0000000000,6.0000000000
1717675307776,6.0000000000,0.0000000000,0.0000000000,0.0000000000,28.0000000000,6.0000000000
1717675307776,7.0000000000,0.0000000000,0.0000000000,0.0000000000,27.0000000000,6.0000000000
1717675307776,6.0000000000,0.0000000000,0.0000000000,0.0000000000,27.0000000000,6.0000000000
1717675307777,7.0000000000,0.0000000000,0.0000000000,0.0000000000,27.0000000000,6.0000000000
1717675307777,7.0000000000,0.0000000000,0.0000000000,0.0000000000,27.0000000000,6.0000000000
1717675307777,7.0000000000,0.0000000000,0.0000000000,0.0000000000,27.0000000000,5.0000000000
1717675307777,7.0000000000,0.0000000000,0.0000000000,0.0000000000,27.0000000000,5.0000000000
1717675307778,7.0000000000,0.0000000000,0.0000000000,0.0000000000,26.0000000000,5.0000000000
1717675307778,7.0000000000,0.0000000000,0.0000000000,0.0000000000,27.0000000000,6.0000000000
1717675307778,7.0000000000,0.0000000000,0.0000000000,0.0000000000,26.0000000000,6.0000000000
1717675307778,6.0000000000,0.0000000000,0.0000000000,0.0000000000,26.0000000000,6.0000000000
1717675307779,7.0000000000,0.0000000000,0.0000000000,0.0000000000,26.0000000000,6.0000000000
1717675307779,7.0000000000,0.0000000000,0.0000000000,0.0000000000,25.0000000000,5.0000000000
1717675307779,7.0000000000,0.0000000000,0.0000000000,0.0000000000,25.0000000000,5.0000000000
1717675307779,6.0000000000,0.0000000000,0.0000000000,0.0000000000,25.0000000000,5.0000000000
1717675307779,6.0000000000,0.0000000000,0.0000000000,0.0000000000,25.0000000000,6.0000000000
1717675307780,7.0000000000,0.0000000000,0.0000000000,0.0000000000,25.0000000000,5.0000000000
1717675307780,7.0000000000,0.0000000000,0.0000000000,0.0000000000,25.0000000000,6.0000000000
1717675307780,7.0000000000,0.0000000000,0.0000000000,0.0000000000,25.0000000000,6.0000000000
1717675307780,6.0000000000,0.0000000000,0.0000000000,0.0000000000,24.0000000000,6.0000000000
1717675307781,7.0000000000,0.0000000000,0.0000000000,0.0000000000,25.0000000000,5.0000000000
1717675307781,7.0000000000,0.0000000000,0.0000000000,0.0000000000,25.0000000000,5.0000000000
1717675307781,7.0000000000,0.0000000000,0.0000000000,0.0000000000,25.0000000000,5.0000000000
1717675307781,7.0000000000,0.0000000000,0.0000000000,0.0000000000,24.0000000000,6.0000000000
1717675307781,7.0000000000,0.0000000000,0.0000000000,0.0000000000,24.0000000000,5.0000000000
1717675307781,6.0000000000,0.0000000000,0.0000000000,0.0000000000,24.0000000000,5.0000000000
1717675307781,6.0000000000,0.0000000000,0.0000000000,0.0000000000,24.0000000000,5.0000000000
1717675307781,7.0000000000,0.0000000000,0.0000000000,0.0000000000,24.0000000000,4.0000000000
1717675307781,6.0000000000,0.0000000000,0.0000000000,0.0000000000,24.0000000000,4.0000000000
1717675307781,6.0000000000,0.0000000000,0.0000000000,0.0000000000,24.0000000000,5.0000000000
1717675307782,6.0000000000,0.0000000000,0.0000000000,0.0000000000,24.0000000000,4.0000000000
1717675307782,6.0000000000,0.0000000000,0.0000000000,0.0000000000,24.0000000000,4.0000000000
1717675307795,6.0000000000,0.0000000000,0.0000000000,0.0000000000,24.0000000000,5.0000000000
1717675307798,6.0000000000,0.0000000000,0.0000000000,0.0000000000,24.0000000000,4.0000000000
1717675307798,6.0000000000,0.0000000000,0.0000000000,0.0000000000,24.0000000000,4.0000000000
1717675307799,6.0000000000,0.0000000000,0.0000000000,0.0000000000,23.0000000000,5.0000000000
1717675307799,6.0000000000,0.0000000000,0.0000000000,0.0000000000,24.0000000000,4.0000000000
1717675307799,6.0000000000,0.0000000000,0.0000000000,0.0000000000,24.0000000000,4.0000000000
1717675307799,7.0000000000,0.0000000000,0.0000000000,0.0000000000,23.0000000000,4.0000000000
1717675307800,7.0000000000,0.0000000000,0.0000000000,0.0000000000,24.0000000000,4.0000000000
1717675307800,7.0000000000,0.0000000000,0.0000000000,0.0000000000,24.0000000000,4.0000000000
1717675307800,7.0000000000,0.0000000000,0.0000000000,0.0000000000,23.0000000000,4.0000000000
1717675307800,7.0000000000,0.0000000000,0.0000000000,0.0000000000,23.0000000000,4.0000000000
1717675307801,7.0000000000,0.0000000000,0.0000000000,0.0000000000,23.0000000000,4.0000000000
1717675307801,7.0000000000,0.0000000000,0.0000000000,0.0000000000,23.0000000000,3.0000000000
1717675307801,7.0000000000,0.0000000000,0.0000000000,0.0000000000,23.0000000000,4.0000000000
1717675307802,7.0000000000,0.0000000000,0.0000000000,0.0000000000,23.0000000000,4.0000000000
1717675307802,7.0000000000,0.0000000000,0.0000000000,0.0000000000,23.0000000000,3.0000000000
1717675307802,6.0000000000,0.0000000000,0.0000000000,0.0000000000,23.0000000000,4.0000000000
1717675307802,6.0000000000,0.0000000000,0.0000000000,0.0000000000,23.0000000000,4.0000000000
1717675307816,6.0000000000,0.0000000000,0.0000000000,0.0000000000,22.0000000000,3.0000000000
1717675307817,6.0000000000,0.0000000000,0.0000000000,0.0000000000,22.0000000000,3.0000000000
1717675307817,6.0000000000,0.0000000000,0.0000000000,0.0000000000,22.0000000000,4.0000000000
1717675307817,7.0000000000,0.0000000000,0.0000000000,0.0000000000,22.0000000000,4.0000000000
1717675307817,7.0000000000,0.0000000000,0.0000000000,0.0000000000,22.0000000000,3.0000000000
1717675307817,7.0000000000,0.0000000000,0.0000000000,0.0000000000,22.0000000000,3.0000000000
1717675307817,7.0000000000,0.0000000000,0.0000000000,0.0000000000,22.0000000000,4.0000000000
1717675307818,7.0000000000,0.0000000000,0.0000000000,0.0000000000,21.0000000000,4.0000000000
1717675307818,7.0000000000,0.0000000000,0.0000000000,0.0000000000,20.0000000000,3.0000000000
1717675307819,7.0000000000,0.0000000000,0.0000000000,0.0000000000,22.0000000000,4.0000000000
1717675307819,7.0000000000,0.0000000000,0.0000000000,0.0000000000,21.0000000000,4.0000000000
1717675307819,7.0000000000,0.0000000000,0.0000000000,0.0000000000,21.0000000000,3.0000000000
1717675307820,7.0000000000,0.0000000000,0.0000000000,0.0000000000,21.0000000000,4.0000000000
1717675307857,7.0000000000,0.0000000000,0.0000000000,0.0000000000,21.0000000000,4.0000000000
1717675307857,7.0000000000,0.0000000000,0.0000000000,0.0000000000,20.0000000000,3.0000000000
1717675307857,7.0000000000,0.0000000000,0.0000000000,0.0000000000,20.0000000000,3.0000000000
1717675307857,7.0000000000,0.0000000000,0.0000000000,0.0000000000,20.0000000000,3.0000000000
1717675307857,7.0000000000,0.0000000000,0.0000000000,0.0000000000,21.0000000000,3.0000000000
1717675307858,7.0000000000,0.0000000000,0.0000000000,0.0000000000,20.0000000000,4.0000000000
1717675307858,7.0000000000,0.0000000000,0.0000000000,0.0000000000,19.0000000000,3.0000000000
1717675307858,6.0000000000,0.0000000000,0.0000000000,0.0000000000,19.0000000000,3.0000000000
1717675307858,7.0000000000,0.0000000000,0.0000000000,0.0000000000,20.0000000000,3.0000000000
1717675307858,7.0000000000,0.0000000000,0.0000000000,0.0000000000,20.0000000000,3.0000000000
1717675307858,7.0000000000,0.0000000000,0.0000000000,0.0000000000,19.0000000000,3.0000000000
1717675307858,7.0000000000,0.0000000000,0.0000000000,0.0000000000,20.0000000000,3.0000000000
1717675307858,7.0000000000,0.0000000000,0.0000000000,0.0000000000,20.0000000000,3.0000000000
1717675307858,7.0000000000,0.0000000000,0.0000000000,0.0000000000,19.0000000000,3.0000000000
1717675307858,7.0000000000,0.0000000000,0.0000000000,0.0000000000,20.0000000000,3.0000000000
1717675307859,7.0000000000,0.0000000000,0.0000000000,0.0000000000,19.0000000000,3.0000000000
1717675307859,7.0000000000,0.0000000000,0.0000000000,0.0000000000,19.0000000000,3.0000000000
1717675307859,7.0000000000,0.0000000000,0.0000000000,0.0000000000,19.0000000000,3.0000000000
1717675307859,7.0000000000,0.0000000000,0.0000000000,0.0000000000,19.0000000000,3.0000000000
1717675307859,7.0000000000,0.0000000000,0.0000000000,0.0000000000,19.0000000000,3.0000000000
1717675307859,7.0000000000,0.0000000000,0.0000000000,0.0000000000,19.0000000000,3.0000000000
1717675307859,7.0000000000,0.0000000000,0.0000000000,0.0000000000,19.0000000000,3.0000000000
1717675307859,7.0000000000,0.0000000000,0.0000000000,0.0000000000,19.0000000000,3.0000000000
1717675307859,7.0000000000,0.0000000000,0.0000000000,0.0000000000,19.0000000000,3.0000000000
1717675307859,7.0000000000,0.0000000000,0.0000000000,0.0000000000,19.0000000000,3.0000000000
1717675307859,7.0000000000,0.0000000000,0.0000000000,0.0000000000,19.0000000000,3.0000000000
1717675307860,7.0000000000,0.0000000000,0.0000000000,0.0000000000,19.0000000000,3.0000000000
1717675307860,7.0000000000,0.0000000000,0.0000000000,0.0000000000,19.0000000000,3.0000000000
1717675307860,7.0000000000,0.0000000000,0.0000000000,0.0000000000,19.0000000000,3.0000000000
1717675307860,7.0000000000,0.0000000000,0.0000000000,0.0000000000,19.0000000000,3.0000000000
1717675307860,6.0000000000,0.0000000000,0.0000000000,0.0000000000,18.0000000000,3.0000000000
1717675307860,7.0000000000,0.0000000000,0.0000000000,0.0000000000,18.0000000000,3.0000000000
1717675307860,7.0000000000,0.0000000000,0.0000000000,0.0000000000,18.0000000000,3.0000000000
1717675307860,7.0000000000,0.0000000000,0.0000000000,0.0000000000,18.0000000000,3.0000000000
1717675307860,7.0000000000,0.0000000000,0.0000000000,0.0000000000,18.0000000000,3.0000000000
1717675307875,7.0000000000,0.0000000000,0.0000000000,0.0000000000,18.0000000000,3.0000000000
1717675307876,6.0000000000,0.0000000000,0.0000000000,0.0000000000,18.0000000000,3.0000000000
1717675307876,6.0000000000,0.0000000000,0.0000000000,0.0000000000,17.0000000000,3.0000000000
1717675307876,6.0000000000,0.0000000000,0.0000000000,0.0000000000,18.0000000000,3.0000000000
1717675307876,6.0000000000,0.0000000000,0.0000000000,0.0000000000,18.0000000000,3.0000000000
1717675307876,6.0000000000,0.0000000000,0.0000000000,0.0000000000,18.0000000000,3.0000000000
1717675307876,6.0000000000,0.0000000000,0.0000000000,0.0000000000,17.0000000000,3.0000000000
1717675307877,6.0000000000,0.0000000000,0.0000000000,0.0000000000,17.0000000000,3.0000000000
1717675307877,7.0000000000,0.0000000000,0.0000000000,0.0000000000,17.0000000000,3.0000000000
1717675307877,7.0000000000,0.0000000000,0.0000000000,0.0000000000,17.0000000000,3.0000000000
1717675307877,7.0000000000,0.0000000000,0.0000000000,0.0000000000,17.0000000000,2.0000000000
1717675307877,7.0000000000,0.0000000000,0.0000000000,0.0000000000,17.0000000000,3.0000000000
1717675307877,7.0000000000,0.0000000000,0.0000000000,0.0000000000,17.0000000000,3.0000000000
1717675307890,7.0000000000,0.0000000000,0.0000000000,0.0000000000,17.0000000000,3.0000000000
1717675307890,6.0000000000,0.0000000000,0.0000000000,0.0000000000,17.0000000000,3.0000000000
1717675307890,7.0000000000,0.0000000000,0.0000000000,0.0000000000,17.0000000000,3.0000000000
1717675307891,6.0000000000,0.0000000000,0.0000000000,0.0000000000,17.0000000000,3.0000000000
1717675307891,6.0000000000,0.0000000000,0.0000000000,0.0000000000,17.0000000000,3.0000000000
1717675307891,7.0000000000,0.0000000000,0.0000000000,0.0000000000,16.0000000000,3.0000000000
1717675307891,7.0000000000,0.0000000000,0.0000000000,0.0000000000,17.0000000000,3.0000000000
1717675307891,7.0000000000,0.0000000000,0.0000000000,0.0000000000,16.0000000000,2.0000000000
1717675307891,7.0000000000,0.0000000000,0.0000000000,0.0000000000,16.0000000000,2.0000000000
1717675307891,6.0000000000,0.0000000000,0.0000000000,0.0000000000,17.0000000000,3.0000000000
1717675307892,6.0000000000,0.0000000000,0.0000000000,0.0000000000,16.0000000000,3.0000000000
1717675307892,7.0000000000,0.0000000000,0.0000000000,0.0000000000,16.0000000000,3.0000000000
1717675307892,7.0000000000,0.0000000000,0.0000000000,0.0000000000,15.0000000000,3.0000000000
1717675307892,7.0000000000,0.0000000000,0.0000000000,0.0000000000,16.0000000000,3.0000000000
1717675307906,7.0000000000,0.0000000000,0.0000000000,0.0000000000,36.0000000000,2.0000000000
1717675307906,7.0000000000,0.0000000000,0.0000000000,0.0000000000,43.0000000000,2.0000000000
1717675307907,6.0000000000,0.0000000000,0.0000000000,0.0000000000,41.0000000000,2.0000000000
1717675307907,6.0000000000,0.0000000000,0.0000000000,0.0000000000,41.0000000000,3.0000000000
1717675307907,6.0000000000,0.0000000000,0.0000000000,0.0000000000,41.0000000000,2.0000000000
1717675307907,6.0000000000,0.0000000000,0.0000000000,0.0000000000,41.0000000000,2.0000000000
1717675307907,6.0000000000,0.0000000000,0.0000000000,0.0000000000,40.0000000000,2.0000000000
1717675307907,6.0000000000,0.0000000000,0.0000000000,0.0000000000,39.0000000000,2.0000000000
1717675307907,6.0000000000,0.0000000000,0.0000000000,0.0000000000,39.0000000000,2.0000000000
1717675307907,6.0000000000,0.0000000000,0.0000000000,0.0000000000,39.0000000000,3.0000000000
1717675307907,6.0000000000,0.0000000000,0.0000000000,0.0000000000,39.0000000000,3.0000000000
1717675307921,6.0000000000,0.0000000000,0.0000000000,0.0000000000,39.0000000000,2.0000000000
1717675307922,6.0000000000,0.0000000000,0.0000000000,0.0000000000,39.0000000000,3.0000000000
1717675307922,6.0000000000,0.0000000000,0.0000000000,0.0000000000,39.0000000000,2.0000000000
1717675307922,7.0000000000,0.0000000000,0.0000000000,0.0000000000,39.0000000000,2.0000000000
1717675307922,7.0000000000,0.0000000000,0.0000000000,0.0000000000,39.0000000000,2.0000000000
1717675307922,7.0000000000,0.0000000000,0.0000000000,0.0000000000,39.0000000000,2.0000000000
1717675307922,7.0000000000,0.0000000000,0.0000000000,0.0000000000,39.0000000000,2.0000000000
1717675307922,7.0000000000,0.0000000000,0.0000000000,0.0000000000,39.0000000000,2.0000000000
1717675307922,7.0000000000,0.0000000000,0.0000000000,0.0000000000,41.0000000000,2.0000000000
1717675307923,7.0000000000,0.0000000000,0.0000000000,0.0000000000,41.0000000000,2.0000000000
1717675307923,7.0000000000,0.0000000000,0.0000000000,0.0000000000,43.0000000000,2.0000000000
1717675307923,7.0000000000,0.0000000000,0.0000000000,0.0000000000,46.0000000000,2.0000000000
1717675307923,7.0000000000,0.0000000000,0.0000000000,0.0000000000,46.0000000000,2.0000000000
1717675307937,7.0000000000,0.0000000000,0.0000000000,0.0000000000,46.0000000000,2.0000000000
1717675307937,7.0000000000,0.0000000000,0.0000000000,0.0000000000,46.0000000000,2.0000000000
1717675307938,7.0000000000,0.0000000000,0.0000000000,0.0000000000,46.0000000000,2.0000000000
1717675307938,7.0000000000,0.0000000000,0.0000000000,0.0000000000,45.0000000000,2.0000000000
1717675307938,7.0000000000,0.0000000000,0.0000000000,0.0000000000,45.0000000000,1.0000000000
1717675307938,7.0000000000,0.0000000000,0.0000000000,0.0000000000,45.0000000000,2.0000000000
1717675307938,8.0000000000,0.0000000000,0.0000000000,0.0000000000,44.0000000000,2.0000000000
1717675307938,9.0000000000,0.0000000000,0.0000000000,0.0000000000,44.0000000000,3.0000000000
1717675307938,8.0000000000,0.0000000000,0.0000000000,0.0000000000,44.0000000000,3.0000000000
1717675307939,8.0000000000,0.0000000000,0.0000000000,0.0000000000,44.0000000000,2.0000000000
1717675307939,7.0000000000,0.0000000000,0.0000000000,0.0000000000,44.0000000000,3.0000000000
1717675307939,9.0000000000,0.0000000000,0.0000000000,0.0000000000,44.0000000000,2.0000000000
1717675307939,7.0000000000,0.0000000000,0.0000000000,0.0000000000,43.0000000000,2.0000000000
1717675307939,8.0000000000,0.0000000000,0.0000000000,0.0000000000,43.0000000000,2.0000000000
1717675307956,7.0000000000,0.0000000000,0.0000000000,0.0000000000,43.0000000000,2.0000000000
1717675307957,8.0000000000,0.0000000000,0.0000000000,0.0000000000,43.0000000000,2.0000000000
1717675307957,8.0000000000,0.0000000000,0.0000000000,0.0000000000,43.0000000000,2.0000000000
1717675307957,8.0000000000,0.0000000000,0.0000000000,0.0000000000,43.0000000000,2.0000000000
1717675307957,8.0000000000,0.0000000000,0.0000000000,0.0000000000,42.0000000000,2.0000000000
1717675307957,7.0000000000,0.0000000000,0.0000000000,0.0000000000,42.0000000000,2.0000000000
1717675307957,7.0000000000,0.0000000000,0.0000000000,0.0000000000,41.0000000000,2.0000000000
1717675307957,8.0000000000,0.0000000000,0.0000000000,0.0000000000,41.0000000000,2.0000000000
1717675307957,7.0000000000,0.0000000000,0.0000000000,0.0000000000,41.0000000000,1.0000000000
1717675307957,8.0000000000,0.0000000000,0.0000000000,0.0000000000,41.0000000000,2.0000000000
1717675307957,7.0000000000,0.0000000000,0.0000000000,0.0000000000,41.0000000000,1.0000000000
1717675307958,7.0000000000,0.0000000000,0.0000000000,0.0000000000,41.0000000000,2.0000000000
1717675307958,7.0000000000,0.0000000000,0.0000000000,0.0000000000,39.0000000000,1.0000000000
1717675307958,7.0000000000,0.0000000000,0.0000000000,0.0000000000,40.0000000000,2.0000000000
1717675307958,7.0000000000,0.0000000000,0.0000000000,0.0000000000,40.0000000000,1.0000000000
1717675307958,7.0000000000,0.0000000000,0.0000000000,0.0000000000,39.0000000000,1.0000000000
1717675307958,7.0000000000,0.0000000000,0.0000000000,3.0000000000,39.0000000000,2.0000000000
1717675307972,7.0000000000,0.0000000000,0.0000000000,25.0000000000,39.0000000000,1.0000000000
1717675307973,7.0000000000,0.0000000000,1.0000000000,25.0000000000,39.0000000000,1.0000000000
1717675307973,7.0000000000,0.0000000000,0.0000000000,25.0000000000,39.0000000000,2.0000000000
1717675307974,7.0000000000,0.0000000000,1.0000000000,24.0000000000,39.0000000000,2.0000000000
1717675307974,7.0000000000,0.0000000000,1.0000000000,24.0000000000,39.0000000000,2.0000000000
1717675307974,7.0000000000,0.0000000000,0.0000000000,24.0000000000,39.0000000000,2.0000000000
1717675307974,7.0000000000,0.0000000000,1.0000000000,24.0000000000,39.0000000000,2.0000000000
1717675307975,7.0000000000,0.0000000000,1.0000000000,24.0000000000,39.0000000000,2.0000000000
1717675307975,8.0000000000,0.0000000000,1.0000000000,24.0000000000,39.0000000000,1.0000000000
1717675307975,8.0000000000,0.0000000000,1.0000000000,24.0000000000,38.0000000000,1.0000000000
1717675307976,7.0000000000,0.0000000000,1.0000000000,24.0000000000,39.0000000000,1.0000000000
1717675307976,7.0000000000,0.0000000000,1.0000000000,24.0000000000,38.0000000000,1.0000000000
1717675307976,7.0000000000,0.0000000000,1.0000000000,24.0000000000,38.0000000000,1.0000000000
1717675308001,7.0000000000,0.0000000000,1.0000000000,24.0000000000,38.0000000000,1.0000000000
1717675308002,7.0000000000,0.0000000000,1.0000000000,23.0000000000,38.0000000000,1.0000000000
1717675308002,7.0000000000,0.0000000000,1.0000000000,24.0000000000,38.0000000000,1.0000000000
1717675308002,7.0000000000,0.0000000000,1.0000000000,23.0000000000,38.0000000000,1.0000000000
1717675308002,7.0000000000,0.0000000000,0.0000000000,23.0000000000,37.0000000000,1.0000000000
1717675308002,7.0000000000,0.0000000000,1.0000000000,23.0000000000,37.0000000000,2.0000000000
1717675308002,7.0000000000,0.0000000000,0.0000000000,23.0000000000,36.0000000000,1.0000000000
1717675308002,7.0000000000,0.0000000000,1.0000000000,23.0000000000,36.0000000000,1.0000000000
1717675308002,7.0000000000,0.0000000000,0.0000000000,23.0000000000,36.0000000000,1.0000000000
1717675308002,7.0000000000,0.0000000000,1.0000000000,22.0000000000,36.0000000000,1.0000000000
1717675308003,7.0000000000,0.0000000000,0.0000000000,22.0000000000,35.0000000000,1.0000000000
1717675308003,7.0000000000,0.0000000000,0.0000000000,22.0000000000,36.0000000000,1.0000000000
1717675308003,7.0000000000,0.0000000000,0.0000000000,22.0000000000,35.0000000000,1.0000000000
1717675308003,7.0000000000,0.0000000000,0.0000000000,22.0000000000,35.0000000000,1.0000000000
1717675308003,7.0000000000,0.0000000000,1.0000000000,22.0000000000,35.0000000000,1.0000000000
1717675308003,7.0000000000,0.0000000000,0.0000000000,22.0000000000,35.0000000000,1.0000000000
1717675308003,7.0000000000,0.0000000000,0.0000000000,22.0000000000,35.0000000000,1.0000000000
1717675308003,7.0000000000,0.0000000000,0.0000000000,21.0000000000,35.0000000000,1.0000000000
1717675308003,7.0000000000,0.0000000000,0.0000000000,22.0000000000,35.0000000000,1.0000000000
1717675308003,7.0000000000,0.0000000000,1.0000000000,21.0000000000,35.0000000000,1.0000000000
1717675308004,7.0000000000,0.0000000000,0.0000000000,21.0000000000,35.0000000000,1.0000000000
1717675308004,7.0000000000,0.0000000000,0.0000000000,21.0000000000,34.0000000000,1.0000000000
1717675308004,7.0000000000,0.0000000000,0.0000000000,20.0000000000,34.0000000000,1.0000000000
1717675308017,7.0000000000,0.0000000000,0.0000000000,21.0000000000,34.0000000000,1.0000000000
1717675308018,7.0000000000,0.0000000000,0.0000000000,20.0000000000,34.0000000000,1.0000000000
1717675308019,7.0000000000,0.0000000000,1.0000000000,20.0000000000,33.0000000000,1.0000000000
1717675308019,7.0000000000,0.0000000000,1.0000000000,20.0000000000,33.0000000000,1.0000000000
1717675308019,7.0000000000,0.0000000000,0.0000000000,20.0000000000,33.0000000000,1.0000000000
1717675308020,7.0000000000,0.0000000000,0.0000000000,19.0000000000,33.0000000000,1.0000000000
1717675308020,7.0000000000,0.0000000000,0.0000000000,20.0000000000,33.0000000000,1.0000000000
1717675308020,7.0000000000,0.0000000000,0.0000000000,20.0000000000,33.0000000000,1.0000000000
1717675308020,7.0000000000,0.0000000000,0.0000000000,20.0000000000,33.0000000000,1.0000000000
1717675308020,7.0000000000,0.0000000000,0.0000000000,19.0000000000,32.0000000000,1.0000000000
1717675308020,7.0000000000,0.0000000000,1.0000000000,20.0000000000,32.0000000000,1.0000000000
1717675308020,7.0000000000,0.0000000000,0.0000000000,19.0000000000,32.0000000000,1.0000000000
1717675308033,7.0000000000,0.0000000000,0.0000000000,19.0000000000,33.0000000000,1.0000000000
1717675308034,7.0000000000,0.0000000000,0.0000000000,19.0000000000,34.0000000000,1.0000000000
1717675308034,7.0000000000,0.0000000000,0.0000000000,19.0000000000,33.0000000000,1.0000000000
1717675308034,7.0000000000,0.0000000000,0.0000000000,19.0000000000,33.0000000000,1.0000000000
1717675308034,7.0000000000,0.0000000000,0.0000000000,19.0000000000,33.0000000000,1.0000000000
1717675308034,7.0000000000,0.0000000000,0.0000000000,19.0000000000,33.0000000000,1.0000000000
1717675308034,7.0000000000,0.0000000000,0.0000000000,19.0000000000,33.0000000000,1.0000000000
1717675308035,7.0000000000,0.0000000000,0.0000000000,19.0000000000,33.0000000000,1.0000000000
1717675308035,8.0000000000,0.0000000000,0.0000000000,19.0000000000,32.0000000000,1.0000000000
1717675308035,8.0000000000,0.0000000000,0.0000000000,19.0000000000,32.0000000000,1.0000000000
1717675308035,7.0000000000,0.0000000000,0.0000000000,19.0000000000,31.0000000000,1.0000000000
1717675308035,7.0000000000,0.0000000000,0.0000000000,19.0000000000,31.0000000000,1.0000000000
1717675308035,7.0000000000,0.0000000000,0.0000000000,19.0000000000,31.0000000000,1.0000000000
1717675308051,7.0000000000,0.0000000000,0.0000000000,19.0000000000,31.0000000000,1.0000000000
1717675308052,7.0000000000,0.0000000000,1.0000000000,45.0000000000,31.0000000000,1.0000000000
1717675308052,7.0000000000,0.0000000000,0.0000000000,95.0000000000,31.0000000000,1.0000000000
1717675308052,7.0000000000,0.0000000000,0.0000000000,94.0000000000,31.0000000000,1.0000000000
1717675308052,7.0000000000,0.0000000000,2.0000000000,94.0000000000,31.0000000000,1.0000000000
1717675308052,7.0000000000,0.0000000000,1.0000000000,93.0000000000,31.0000000000,1.0000000000
1717675308053,7.0000000000,0.0000000000,1.0000000000,92.0000000000,31.0000000000,1.0000000000
1717675308053,7.0000000000,0.0000000000,1.0000000000,92.0000000000,31.0000000000,0.0000000000
1717675308053,7.0000000000,0.0000000000,1.0000000000,91.0000000000,31.0000000000,1.0000000000
1717675308053,7.0000000000,0.0000000000,1.0000000000,91.0000000000,31.0000000000,1.0000000000
1717675308053,9.0000000000,0.0000000000,1.0000000000,89.0000000000,31.0000000000,1.0000000000
1717675308053,9.0000000000,0.0000000000,1.0000000000,90.0000000000,30.0000000000,1.0000000000
1717675308053,9.0000000000,0.0000000000,1.0000000000,89.0000000000,30.0000000000,1.0000000000
1717675308066,9.0000000000,0.0000000000,1.0000000000,89.0000000000,30.0000000000,1.0000000000
1717675308066,9.0000000000,0.0000000000,1.0000000000,88.0000000000,30.0000000000,1.0000000000
1717675308066,7.0000000000,0.0000000000,1.0000000000,88.0000000000,30.0000000000,1.0000000000
1717675308067,8.0000000000,0.0000000000,1.0000000000,88.0000000000,29.0000000000,1.0000000000
1717675308067,7.0000000000,0.0000000000,1.0000000000,87.0000000000,30.0000000000,1.0000000000
1717675308067,8.0000000000,0.0000000000,1.0000000000,87.0000000000,29.0000000000,1.0000000000
1717675308067,7.0000000000,0.0000000000,1.0000000000,87.0000000000,30.0000000000,1.0000000000
1717675308067,8.0000000000,0.0000000000,2.0000000000,86.0000000000,29.0000000000,1.0000000000
1717675308067,8.0000000000,0.0000000000,2.0000000000,86.0000000000,29.0000000000,1.0000000000
1717675308067,8.0000000000,0.0000000000,2.0000000000,86.0000000000,28.0000000000,1.0000000000
1717675308068,8.0000000000,0.0000000000,2.0000000000,84.0000000000,28.0000000000,1.0000000000
1717675308068,8.0000000000,0.0000000000,2.0000000000,84.0000000000,28.0000000000,1.0000000000
1717675308068,8.0000000000,0.0000000000,3.0000000000,83.0000000000,28.0000000000,1.0000000000
1717675308080,8.0000000000,0.0000000000,2.0000000000,83.0000000000,28.0000000000,0.0000000000
1717675308081,8.0000000000,0.0000000000,3.0000000000,83.0000000000,28.0000000000,1.0000000000
1717675308081,7.0000000000,0.0000000000,2.0000000000,83.0000000000,28.0000000000,0.0000000000
1717675308081,8.0000000000,0.0000000000,2.0000000000,83.0000000000,28.0000000000,1.0000000000
1717675308081,7.0000000000,0.0000000000,2.0000000000,82.0000000000,28.0000000000,1.0000000000
1717675308081,7.0000000000,0.0000000000,2.0000000000,82.0000000000,28.0000000000,1.0000000000
1717675308082,7.0000000000,0.0000000000,2.0000000000,81.0000000000,28.0000000000,1.0000000000
1717675308082,7.0000000000,0.0000000000,2.0000000000,81.0000000000,28.0000000000,0.0000000000
1717675308082,7.0000000000,0.0000000000,2.0000000000,81.0000000000,27.0000000000,0.0000000000
1717675308082,7.0000000000,0.0000000000,3.0000000000,80.0000000000,27.0000000000,0.0000000000
1717675308096,7.0000000000,0.0000000000,3.0000000000,79.0000000000,28.0000000000,1.0000000000
1717675308098,7.0000000000,0.0000000000,3.0000000000,79.0000000000,27.0000000000,1.0000000000
1717675308098,7.0000000000,0.0000000000,2.0000000000,79.0000000000,27.0000000000,0.0000000000
1717675308099,7.0000000000,0.0000000000,3.0000000000,79.0000000000,27.0000000000,0.0000000000
1717675308099,7.0000000000,0.0000000000,3.0000000000,79.0000000000,27.0000000000,0.0000000000
1717675308099,7.0000000000,0.0000000000,2.0000000000,79.0000000000,27.0000000000,0.0000000000
1717675308099,7.0000000000,0.0000000000,3.0000000000,81.0000000000,25.0000000000,0.0000000000
1717675308099,8.0000000000,0.0000000000,2.0000000000,81.0000000000,27.0000000000,0.0000000000
1717675308100,7.0000000000,0.0000000000,3.0000000000,81.0000000000,26.0000000000,1.0000000000
1717675308100,7.0000000000,0.0000000000,3.0000000000,80.0000000000,26.0000000000,0.0000000000
1717675308100,7.0000000000,0.0000000000,2.0000000000,79.0000000000,26.0000000000,0.0000000000
1717675308101,7.0000000000,0.0000000000,3.0000000000,79.0000000000,26.0000000000,0.0000000000
1717675308101,7.0000000000,0.0000000000,3.0000000000,79.0000000000,25.0000000000,0.0000000000
1717675308101,8.0000000000,0.0000000000,3.0000000000,79.0000000000,25.0000000000,0.0000000000
1717675308101,7.0000000000,0.0000000000,2.0000000000,79.0000000000,25.0000000000,1.0000000000
1717675308101,7.0000000000,0.0000000000,2.0000000000,78.0000000000,25.0000000000,0.0000000000
1717675308114,7.0000000000,0.0000000000,2.0000000000,78.0000000000,25.0000000000,0.0000000000
1717675308115,7.0000000000,0.0000000000,3.0000000000,78.0000000000,25.0000000000,0.0000000000
1717675308115,7.0000000000,0.0000000000,2.0000000000,77.0000000000,25.0000000000,0.0000000000
1717675308116,7.0000000000,0.0000000000,2.0000000000,77.0000000000,25.0000000000,0.0000000000
1717675308116,7.0000000000,0.0000000000,3.0000000000,76.0000000000,25.0000000000,1.0000000000
1717675308116,7.0000000000,0.0000000000,2.0000000000,76.0000000000,25.0000000000,0.0000000000
1717675308116,7.0000000000,0.0000000000,2.0000000000,76.0000000000,24.0000000000,1.0000000000
1717675308116,7.0000000000,0.0000000000,3.0000000000,76.0000000000,24.0000000000,1.0000000000
1717675308116,7.0000000000,0.0000000000,2.0000000000,75.0000000000,24.0000000000,0.0000000000
1717675308130,7.0000000000,0.0000000000,2.0000000000,75.0000000000,24.0000000000,0.0000000000
1717675308131,7.0000000000,0.0000000000,2.0000000000,75.0000000000,24.0000000000,1.0000000000
1717675308131,7.0000000000,0.0000000000,3.0000000000,75.0000000000,24.0000000000,1.0000000000
1717675308132,7.0000000000,0.0000000000,7.0000000000,166.0000000000,41.0000000000,0.0000000000
1717675308132,7.0000000000,0.0000000000,11.0000000000,191.0000000000,42.0000000000,0.0000000000
1717675308132,7.0000000000,0.0000000000,10.0000000000,189.0000000000,41.0000000000,0.0000000000
1717675308132,7.0000000000,0.0000000000,10.0000000000,188.0000000000,42.0000000000,0.0000000000
1717675308132,7.0000000000,0.0000000000,10.0000000000,188.0000000000,41.0000000000,0.0000000000
1717675308132,7.0000000000,0.0000000000,10.0000000000,185.0000000000,41.0000000000,0.0000000000
1717675308132,7.0000000000,0.0000000000,10.0000000000,184.0000000000,41.0000000000,1.0000000000
1717675308133,7.0000000000,0.0000000000,9.0000000000,184.0000000000,41.0000000000,0.0000000000
1717675308133,7.0000000000,0.0000000000,9.0000000000,183.0000000000,40.0000000000,0.0000000000
1717675308153,7.0000000000,0.0000000000,9.0000000000,182.0000000000,40.0000000000,0.0000000000
1717675308155,7.0000000000,0.0000000000,9.0000000000,180.0000000000,39.0000000000,0.0000000000
1717675308155,7.0000000000,0.0000000000,9.0000000000,179.0000000000,39.0000000000,0.0000000000
1717675308155,7.0000000000,0.0000000000,9.0000000000,178.0000000000,39.0000000000,1.0000000000
1717675308156,7.0000000000,0.0000000000,9.0000000000,178.0000000000,39.0000000000,0.0000000000
1717675308156,7.0000000000,0.0000000000,9.0000000000,177.0000000000,39.0000000000,0.0000000000
1717675308156,7.0000000000,0.0000000000,9.0000000000,176.0000000000,39.0000000000,0.0000000000
1717675308156,7.0000000000,0.0000000000,8.0000000000,175.0000000000,39.0000000000,0.0000000000
1717675308157,7.0000000000,0.0000000000,9.0000000000,175.0000000000,39.0000000000,0.0000000000
1717675308157,7.0000000000,0.0000000000,9.0000000000,174.0000000000,39.0000000000,0.0000000000
1717675308157,7.0000000000,0.0000000000,9.0000000000,173.0000000000,39.0000000000,0.0000000000
1717675308157,7.0000000000,0.0000000000,9.0000000000,172.0000000000,39.0000000000,0.0000000000
1717675308158,7.0000000000,0.0000000000,9.0000000000,172.0000000000,38.0000000000,0.0000000000
1717675308158,7.0000000000,0.0000000000,9.0000000000,171.0000000000,38.0000000000,0.0000000000
1717675308158,7.0000000000,0.0000000000,9.0000000000,170.0000000000,38.0000000000,0.0000000000
1717675308159,7.0000000000,0.0000000000,9.0000000000,169.0000000000,37.0000000000,0.0000000000
1717675308159,7.0000000000,0.0000000000,9.0000000000,168.0000000000,38.0000000000,0.0000000000
1717675308159,7.0000000000,0.0000000000,8.0000000000,167.0000000000,37.0000000000,0.0000000000
1717675308159,7.0000000000,0.0000000000,8.0000000000,167.0000000000,36.0000000000,0.0000000000
1717675308159,7.0000000000,0.0000000000,9.0000000000,167.0000000000,48.0000000000,0.0000000000
1717675308160,7.0000000000,0.0000000000,8.0000000000,165.0000000000,48.0000000000,0.0000000000
1717675308188,7.0000000000,0.0000000000,7.0000000000,164.0000000000,48.0000000000,0.0000000000
1717675308189,7.0000000000,0.0000000000,8.0000000000,163.0000000000,48.0000000000,0.0000000000
1717675308189,7.0000000000,0.0000000000,8.0000000000,163.0000000000,48.0000000000,0.0000000000
1717675308190,7.0000000000,0.0000000000,9.0000000000,162.0000000000,47.0000000000,0.0000000000
1717675308190,7.0000000000,0.0000000000,8.0000000000,161.0000000000,47.0000000000,0.0000000000
1717675308190,7.0000000000,0.0000000000,8.0000000000,161.0000000000,47.0000000000,0.0000000000
1717675308190,7.0000000000,0.0000000000,8.0000000000,159.0000000000,47.0000000000,0.0000000000
1717675308191,7.0000000000,0.0000000000,8.0000000000,159.0000000000,46.0000000000,0.0000000000
1717675308191,7.0000000000,0.0000000000,7.0000000000,159.0000000000,46.0000000000,0.0000000000
1717675308191,7.0000000000,0.0000000000,8.0000000000,191.0000000000,46.0000000000,0.0000000000
1717675308191,7.0000000000,0.0000000000,7.0000000000,189.0000000000,46.0000000000,0.0000000000
1717675308192,7.0000000000,0.0000000000,7.0000000000,188.0000000000,45.0000000000,0.0000000000
1717675308192,7.0000000000,0.0000000000,7.0000000000,187.0000000000,45.0000000000,0.0000000000
1717675308193,7.0000000000,0.0000000000,12.0000000000,225.0000000000,45.0000000000,0.0000000000
1717675308193,7.0000000000,0.0000000000,12.0000000000,223.0000000000,48.0000000000,0.0000000000
1717675308193,7.0000000000,0.0000000000,20.0000000000,221.0000000000,49.0000000000,0.0000000000
1717675308194,7.0000000000,0.0000000000,20.0000000000,220.0000000000,49.0000000000,0.0000000000
1717675308194,7.0000000000,0.0000000000,20.0000000000,219.0000000000,49.0000000000,0.0000000000
1717675308194,7.0000000000,0.0000000000,20.0000000000,217.0000000000,48.0000000000,0.0000000000
1717675308194,7.0000000000,0.0000000000,20.0000000000,216.0000000000,48.0000000000,0.0000000000
1717675308194,7.0000000000,0.0000000000,20.0000000000,215.0000000000,48.0000000000,0.0000000000
1717675308195,15.0000000000,0.0000000000,19.0000000000,214.0000000000,48.0000000000,0.0000000000
1717675308195,17.0000000000,0.0000000000,19.0000000000,212.0000000000,48.0000000000,0.0000000000
1717675308195,17.0000000000,0.0000000000,19.0000000000,211.0000000000,47.0000000000,0.0000000000
1717675308196,17.0000000000,0.0000000000,19.0000000000,210.0000000000,108.0000000000,0.0000000000
1717675308196,17.0000000000,0.0000000000,19.0000000000,228.0000000000,167.0000000000,0.0000000000
1717675308224,16.0000000000,0.0000000000,19.0000000000,226.0000000000,166.0000000000,0.0000000000
1717675308224,16.0000000000,0.0000000000,19.0000000000,224.0000000000,164.0000000000,0.0000000000
1717675308224,16.0000000000,0.0000000000,19.0000000000,224.0000000000,163.0000000000,0.0000000000
1717675308224,15.0000000000,0.0000000000,19.0000000000,222.0000000000,161.0000000000,0.0000000000
1717675308225,15.0000000000,0.0000000000,19.0000000000,220.0000000000,160.0000000000,0.0000000000
1717675308225,16.0000000000,0.0000000000,19.0000000000,219.0000000000,159.0000000000,0.0000000000
1717675308225,15.0000000000,0.0000000000,18.0000000000,217.0000000000,159.0000000000,0.0000000000
1717675308225,15.0000000000,0.0000000000,18.0000000000,216.0000000000,158.0000000000,0.0000000000
1717675308225,15.0000000000,0.0000000000,18.0000000000,276.0000000000,157.0000000000,0.0000000000
1717675308225,15.0000000000,0.0000000000,18.0000000000,273.0000000000,156.0000000000,0.0000000000
1717675308225,15.0000000000,0.0000000000,18.0000000000,316.0000000000,155.0000000000,0.0000000000
1717675308225,15.0000000000,0.0000000000,18.0000000000,312.0000000000,153.0000000000,0.0000000000
1717675308225,15.0000000000,0.0000000000,17.0000000000,308.0000000000,153.0000000000,0.0000000000
1717675308225,15.0000000000,0.0000000000,17.0000000000,307.0000000000,152.0000000000,0.0000000000
1717675308225,15.0000000000,0.0000000000,17.0000000000,304.0000000000,152.0000000000,0.0000000000
1717675308226,15.0000000000,0.0000000000,18.0000000000,303.0000000000,151.0000000000,0.0000000000
1717675308226,15.0000000000,0.0000000000,17.0000000000,300.0000000000,234.0000000000,0.0000000000
1717675308226,15.0000000000,0.0000000000,17.0000000000,297.0000000000,237.0000000000,0.0000000000
1717675308240,15.0000000000,0.0000000000,17.0000000000,295.0000000000,236.0000000000,0.0000000000
1717675308241,15.0000000000,0.0000000000,17.0000000000,295.0000000000,233.0000000000,0.0000000000
1717675308241,15.0000000000,0.0000000000,17.0000000000,293.0000000000,231.0000000000,0.0000000000
1717675308242,17.0000000000,0.0000000000,17.0000000000,291.0000000000,231.0000000000,0.0000000000
1717675308242,17.0000000000,0.0000000000,17.0000000000,289.0000000000,229.0000000000,0.0000000000
1717675308242,17.0000000000,0.0000000000,17.0000000000,287.0000000000,227.0000000000,0.0000000000
1717675308242,16.0000000000,0.0000000000,16.0000000000,286.0000000000,226.0000000000,0.0000000000
1717675308243,16.0000000000,0.0000000000,16.0000000000,286.0000000000,225.0000000000,0.0000000000
1717675308243,15.0000000000,0.0000000000,17.0000000000,284.0000000000,224.0000000000,0.0000000000
1717675308243,16.0000000000,0.0000000000,17.0000000000,282.0000000000,222.0000000000,0.0000000000
1717675308261,15.0000000000,0.0000000000,17.0000000000,280.0000000000,221.0000000000,0.0000000000
1717675308261,15.0000000000,0.0000000000,17.0000000000,279.0000000000,220.0000000000,0.0000000000
1717675308262,15.0000000000,0.0000000000,17.0000000000,277.0000000000,218.0000000000,0.0000000000
1717675308262,15.0000000000,0.0000000000,31.0000000000,275.0000000000,217.0000000000,0.0000000000
1717675308262,17.0000000000,0.0000000000,31.0000000000,274.0000000000,216.0000000000,0.0000000000
1717675308262,23.0000000000,0.0000000000,31.0000000000,271.0000000000,215.0000000000,0.0000000000
1717675308263,24.0000000000,0.0000000000,31.0000000000,271.0000000000,214.0000000000,0.0000000000
1717675308263,23.0000000000,0.0000000000,31.0000000000,335.0000000000,212.0000000000,0.0000000000
1717675308263,23.0000000000,0.0000000000,31.0000000000,376.0000000000,211.0000000000,0.0000000000
1717675308263,23.0000000000,0.0000000000,31.0000000000,371.0000000000,210.0000000000,0.0000000000
1717675308263,22.0000000000,0.0000000000,30.0000000000,369.0000000000,209.0000000000,0.0000000000
1717675308263,22.0000000000,0.0000000000,36.0000000000,367.0000000000,207.0000000000,0.0000000000
1717675308276,22.0000000000,0.0000000000,96.0000000000,364.0000000000,207.0000000000,0.0000000000
1717675308276,22.0000000000,0.0000000000,97.0000000000,360.0000000000,206.0000000000,0.0000000000
1717675308277,22.0000000000,0.0000000000,96.0000000000,359.0000000000,204.0000000000,0.0000000000
1717675308277,22.0000000000,0.0000000000,95.0000000000,356.0000000000,203.0000000000,0.0000000000
1717675308277,22.0000000000,0.0000000000,95.0000000000,355.0000000000,202.0000000000,0.0000000000
1717675308277,24.0000000000,0.0000000000,94.0000000000,352.0000000000,201.0000000000,1.0000000000
1717675308277,24.0000000000,0.0000000000,94.0000000000,350.0000000000,199.0000000000,0.0000000000
1717675308277,24.0000000000,0.0000000000,93.0000000000,348.0000000000,199.0000000000,0.0000000000
1717675308277,24.0000000000,0.0000000000,92.0000000000,345.0000000000,199.0000000000,0.0000000000
1717675308277,24.0000000000,0.0000000000,92.0000000000,344.0000000000,199.0000000000,0.0000000000
1717675308278,23.0000000000,1.0000000000,91.0000000000,340.0000000000,198.0000000000,0.0000000000
1717675308294,24.0000000000,1.0000000000,91.0000000000,339.0000000000,197.0000000000,0.0000000000
1717675308296,23.0000000000,1.0000000000,91.0000000000,336.0000000000,196.0000000000,0.0000000000
1717675308296,23.0000000000,1.0000000000,89.0000000000,334.0000000000,195.0000000000,0.0000000000
1717675308296,23.0000000000,1.0000000000,89.0000000000,332.0000000000,194.0000000000,0.0000000000
1717675308297,23.0000000000,1.0000000000,88.0000000000,411.0000000000,192.0000000000,1.0000000000
1717675308297,23.0000000000,1.0000000000,88.0000000000,407.0000000000,192.0000000000,0.0000000000
1717675308298,22.0000000000,0.0000000000,88.0000000000,403.0000000000,191.0000000000,1.0000000000
1717675308298,22.0000000000,0.0000000000,88.0000000000,399.0000000000,190.0000000000,1.0000000000
1717675308298,22.0000000000,1.0000000000,87.0000000000,397.0000000000,189.0000000000,1.0000000000
1717675308298,22.0000000000,1.0000000000,87.0000000000,393.0000000000,188.0000000000,0.0000000000
1717675308299,22.0000000000,1.0000000000,86.0000000000,391.0000000000,187.0000000000,0.0000000000
1717675308299,22.0000000000,1.0000000000,85.0000000000,388.0000000000,186.0000000000,0.0000000000
1717675308312,22.0000000000,1.0000000000,87.0000000000,386.0000000000,185.0000000000,0.0000000000
1717675308313,22.0000000000,2.0000000000,91.0000000000,384.0000000000,184.0000000000,0.0000000000
1717675308314,22.0000000000,3.0000000000,89.0000000000,380.0000000000,183.0000000000,1.0000000000
1717675308314,22.0000000000,2.0000000000,89.0000000000,431.0000000000,183.0000000000,0.0000000000
1717675308314,21.0000000000,2.0000000000,88.0000000000,426.0000000000,181.0000000000,0.0000000000
1717675308314,21.0000000000,2.0000000000,88.0000000000,423.0000000000,180.0000000000,0.0000000000
1717675308314,21.0000000000,2.0000000000,88.0000000000,538.0000000000,179.0000000000,0.0000000000
1717675308314,21.0000000000,2.0000000000,88.0000000000,531.0000000000,179.0000000000,1.0000000000
1717675308315,22.0000000000,2.0000000000,87.0000000000,527.0000000000,177.0000000000,0.0000000000
1717675308315,22.0000000000,2.0000000000,87.0000000000,523.0000000000,177.0000000000,0.0000000000
1717675308331,22.0000000000,3.0000000000,86.0000000000,577.0000000000,176.0000000000,0.0000000000
1717675308332,22.0000000000,2.0000000000,85.0000000000,572.0000000000,175.0000000000,0.0000000000
1717675308332,22.0000000000,3.0000000000,84.0000000000,568.0000000000,174.0000000000,0.0000000000
1717675308332,22.0000000000,3.0000000000,87.0000000000,563.0000000000,173.0000000000,0.0000000000
1717675308332,21.0000000000,3.0000000000,86.0000000000,556.0000000000,172.0000000000,0.0000000000
1717675308333,21.0000000000,3.0000000000,86.0000000000,551.0000000000,172.0000000000,0.0000000000
1717675308333,21.0000000000,3.0000000000,86.0000000000,547.0000000000,171.0000000000,0.0000000000
1717675308333,21.0000000000,2.0000000000,85.0000000000,543.0000000000,169.0000000000,1.0000000000
1717675308333,21.0000000000,3.0000000000,84.0000000000,537.0000000000,169.0000000000,1.0000000000
1717675308333,30.0000000000,2.0000000000,84.0000000000,572.0000000000,167.0000000000,1.0000000000
1717675308333,31.0000000000,2.0000000000,83.0000000000,582.0000000000,167.0000000000,1.0000000000
1717675308333,31.0000000000,2.0000000000,83.0000000000,576.0000000000,167.0000000000,1.0000000000
1717675308334,31.0000000000,2.0000000000,82.0000000000,574.0000000000,166.0000000000,1.0000000000
1717675308347,31.0000000000,2.0000000000,83.0000000000,569.0000000000,164.0000000000,1.0000000000
1717675308348,31.0000000000,2.0000000000,81.0000000000,564.0000000000,164.0000000000,1.0000000000
1717675308348,31.0000000000,2.0000000000,81.0000000000,560.0000000000,163.0000000000,0.0000000000
1717675308349,30.0000000000,3.0000000000,81.0000000000,622.0000000000,163.0000000000,1.0000000000
1717675308349,30.0000000000,3.0000000000,80.0000000000,611.0000000000,161.0000000000,1.0000000000
1717675308349,30.0000000000,3.0000000000,79.0000000000,606.0000000000,161.0000000000,1.0000000000
1717675308349,30.0000000000,3.0000000000,79.0000000000,600.0000000000,159.0000000000,1.0000000000
1717675308349,29.0000000000,3.0000000000,79.0000000000,595.0000000000,159.0000000000,1.0000000000
1717675308374,30.0000000000,3.0000000000,79.0000000000,590.0000000000,158.0000000000,3.0000000000
1717675308374,31.0000000000,3.0000000000,79.0000000000,584.0000000000,158.0000000000,3.0000000000
1717675308374,32.0000000000,3.0000000000,79.0000000000,579.0000000000,157.0000000000,7.0000000000
1717675308374,33.0000000000,3.0000000000,79.0000000000,575.0000000000,156.0000000000,7.0000000000
1717675308375,32.0000000000,3.0000000000,79.0000000000,572.0000000000,156.0000000000,7.0000000000
1717675308375,32.0000000000,4.0000000000,78.0000000000,587.0000000000,199.0000000000,7.0000000000
1717675308375,31.0000000000,5.0000000000,78.0000000000,582.0000000000,197.0000000000,7.0000000000
1717675308375,31.0000000000,5.0000000000,78.0000000000,577.0000000000,196.0000000000,7.0000000000
1717675308375,31.0000000000,5.0000000000,77.0000000000,571.0000000000,195.0000000000,7.0000000000
1717675308375,31.0000000000,4.0000000000,76.0000000000,566.0000000000,193.0000000000,7.0000000000
1717675308375,31.0000000000,5.0000000000,76.0000000000,561.0000000000,192.0000000000,7.0000000000
1717675308375,31.0000000000,5.0000000000,76.0000000000,558.0000000000,192.0000000000,6.0000000000
1717675308375,31.0000000000,5.0000000000,75.0000000000,551.0000000000,191.0000000000,6.0000000000
1717675308375,30.0000000000,4.0000000000,75.0000000000,547.0000000000,189.0000000000,7.0000000000
1717675308375,31.0000000000,4.0000000000,75.0000000000,543.0000000000,188.0000000000,6.0000000000
1717675308376,30.0000000000,4.0000000000,74.0000000000,540.0000000000,187.0000000000,6.0000000000
1717675308376,30.0000000000,4.0000000000,73.0000000000,535.0000000000,187.0000000000,7.0000000000
1717675308391,30.0000000000,4.0000000000,73.0000000000,531.0000000000,211.0000000000,6.0000000000
1717675308392,30.0000000000,7.0000000000,77.0000000000,527.0000000000,209.0000000000,6.0000000000
1717675308392,29.0000000000,7.0000000000,78.0000000000,524.0000000000,207.0000000000,6.0000000000
1717675308393,30.0000000000,7.0000000000,99.0000000000,519.0000000000,207.0000000000,6.0000000000
1717675308393,29.0000000000,7.0000000000,99.0000000000,515.0000000000,206.0000000000,6.0000000000
1717675308393,29.0000000000,7.0000000000,99.0000000000,588.0000000000,204.0000000000,6.0000000000
1717675308393,28.0000000000,7.0000000000,99.0000000000,582.0000000000,203.0000000000,6.0000000000
1717675308393,28.0000000000,7.0000000000,97.0000000000,575.0000000000,202.0000000000,6.0000000000
1717675308393,31.0000000000,7.0000000000,97.0000000000,571.0000000000,201.0000000000,7.0000000000
1717675308394,39.0000000000,7.0000000000,96.0000000000,566.0000000000,199.0000000000,7.0000000000
1717675308411,39.0000000000,7.0000000000,96.0000000000,561.0000000000,199.0000000000,6.0000000000
1717675308412,39.0000000000,7.0000000000,96.0000000000,556.0000000000,198.0000000000,6.0000000000
1717675308412,39.0000000000,7.0000000000,172.0000000000,551.0000000000,196.0000000000,6.0000000000
1717675308412,38.0000000000,7.0000000000,169.0000000000,547.0000000000,195.0000000000,6.0000000000
1717675308412,38.0000000000,7.0000000000,168.0000000000,591.0000000000,195.0000000000,6.0000000000
1717675308413,37.0000000000,7.0000000000,167.0000000000,587.0000000000,193.0000000000,6.0000000000
1717675308413,37.0000000000,7.0000000000,166.0000000000,671.0000000000,192.0000000000,6.0000000000
1717675308413,37.0000000000,7.0000000000,164.0000000000,684.0000000000,191.0000000000,6.0000000000
1717675308413,36.0000000000,7.0000000000,164.0000000000,675.0000000000,190.0000000000,6.0000000000
1717675308413,36.0000000000,7.0000000000,163.0000000000,668.0000000000,188.0000000000,6.0000000000
1717675308413,36.0000000000,7.0000000000,162.0000000000,663.0000000000,188.0000000000,6.0000000000
1717675308414,36.0000000000,7.0000000000,161.0000000000,655.0000000000,187.0000000000,6.0000000000
1717675308414,36.0000000000,7.0000000000,159.0000000000,649.0000000000,185.0000000000,6.0000000000
1717675308429,35.0000000000,7.0000000000,159.0000000000,641.0000000000,184.0000000000,6.0000000000
1717675308430,35.0000000000,7.0000000000,158.0000000000,636.0000000000,184.0000000000,6.0000000000
1717675308430,35.0000000000,9.0000000000,157.0000000000,632.0000000000,183.0000000000,6.0000000000
1717675308431,35.0000000000,9.0000000000,156.0000000000,624.0000000000,182.0000000000,6.0000000000
1717675308431,35.0000000000,9.0000000000,155.0000000000,620.0000000000,211.0000000000,6.0000000000
1717675308431,34.0000000000,9.0000000000,155.0000000000,612.0000000000,209.0000000000,6.0000000000
1717675308431,34.0000000000,9.0000000000,153.0000000000,608.0000000000,207.0000000000,5.0000000000
1717675308433,34.0000000000,9.0000000000,152.0000000000,601.0000000000,207.0000000000,6.0000000000
1717675308434,34.0000000000,8.0000000000,152.0000000000,596.0000000000,206.0000000000,6.0000000000
1717675308435,34.0000000000,9.0000000000,151.0000000000,661.0000000000,204.0000000000,6.0000000000
1717675308436,33.0000000000,9.0000000000,150.0000000000,652.0000000000,203.0000000000,5.0000000000
1717675308436,33.0000000000,9.0000000000,149.0000000000,646.0000000000,201.0000000000,5.0000000000
1717675308437,33.0000000000,9.0000000000,148.0000000000,639.0000000000,199.0000000000,5.0000000000
1717675308437,33.0000000000,9.0000000000,147.0000000000,633.0000000000,199.0000000000,5.0000000000
1717675308461,32.0000000000,10.0000000000,147.0000000000,627.0000000000,198.0000000000,5.0000000000
1717675308462,32.0000000000,9.0000000000,145.0000000000,621.0000000000,196.0000000000,4.0000000000
1717675308462,31.0000000000,9.0000000000,145.0000000000,615.0000000000,195.0000000000,5.0000000000
1717675308462,31.0000000000,9.0000000000,145.0000000000,609.0000000000,195.0000000000,5.0000000000
1717675308462,31.0000000000,9.0000000000,143.0000000000,604.0000000000,193.0000000000,5.0000000000
1717675308462,31.0000000000,9.0000000000,143.0000000000,598.0000000000,192.0000000000,5.0000000000
1717675308464,31.0000000000,8.0000000000,143.0000000000,593.0000000000,191.0000000000,5.0000000000
1717675308464,31.0000000000,9.0000000000,142.0000000000,587.0000000000,190.0000000000,5.0000000000
1717675308465,31.0000000000,9.0000000000,141.0000000000,583.0000000000,189.0000000000,5.0000000000
1717675308465,31.0000000000,9.0000000000,140.0000000000,578.0000000000,188.0000000000,4.0000000000
1717675308465,31.0000000000,8.0000000000,140.0000000000,572.0000000000,187.0000000000,4.0000000000
1717675308466,30.0000000000,8.0000000000,139.0000000000,568.0000000000,185.0000000000,4.0000000000
1717675308466,30.0000000000,9.0000000000,138.0000000000,563.0000000000,184.0000000000,4.0000000000
1717675308466,30.0000000000,7.0000000000,137.0000000000,559.0000000000,184.0000000000,4.0000000000
1717675308467,30.0000000000,8.0000000000,135.0000000000,555.0000000000,183.0000000000,4.0000000000
1717675308468,30.0000000000,8.0000000000,142.0000000000,550.0000000000,182.0000000000,3.0000000000
1717675308468,30.0000000000,7.0000000000,147.0000000000,545.0000000000,180.0000000000,5.0000000000
1717675308482,29.0000000000,7.0000000000,147.0000000000,540.0000000000,179.0000000000,5.0000000000
1717675308483,29.0000000000,8.0000000000,145.0000000000,536.0000000000,178.0000000000,5.0000000000
1717675308484,29.0000000000,7.0000000000,145.0000000000,531.0000000000,177.0000000000,5.0000000000
1717675308484,29.0000000000,7.0000000000,144.0000000000,527.0000000000,177.0000000000,5.0000000000
1717675308484,29.0000000000,7.0000000000,143.0000000000,588.0000000000,176.0000000000,5.0000000000
1717675308484,28.0000000000,7.0000000000,143.0000000000,580.0000000000,175.0000000000,4.0000000000
1717675308485,28.0000000000,7.0000000000,142.0000000000,575.0000000000,174.0000000000,4.0000000000
1717675308485,28.0000000000,7.0000000000,141.0000000000,569.0000000000,173.0000000000,4.0000000000
1717675308486,28.0000000000,7.0000000000,140.0000000000,564.0000000000,173.0000000000,4.0000000000
1717675308486,28.0000000000,7.0000000000,141.0000000000,561.0000000000,173.0000000000,4.0000000000
1717675308486,27.0000000000,7.0000000000,156.0000000000,605.0000000000,172.0000000000,4.0000000000
1717675308487,28.0000000000,7.0000000000,156.0000000000,600.0000000000,195.0000000000,5.0000000000
1717675308548,27.0000000000,7.0000000000,155.0000000000,593.0000000000,193.0000000000,4.0000000000
1717675308548,64.0000000000,17.0000000000,153.0000000000,588.0000000000,192.0000000000,4.0000000000
1717675308548,75.0000000000,23.0000000000,152.0000000000,582.0000000000,191.0000000000,4.0000000000
1717675308548,74.0000000000,23.0000000000,152.0000000000,577.0000000000,190.0000000000,4.0000000000
1717675308549,73.0000000000,23.0000000000,151.0000000000,571.0000000000,189.0000000000,4.0000000000
1717675308549,72.0000000000,23.0000000000,150.0000000000,566.0000000000,188.0000000000,4.0000000000
1717675308549,71.0000000000,22.0000000000,148.0000000000,561.0000000000,185.0000000000,4.0000000000
1717675308549,71.0000000000,22.0000000000,148.0000000000,555.0000000000,185.0000000000,4.0000000000
1717675308549,71.0000000000,22.0000000000,147.0000000000,553.0000000000,184.0000000000,4.0000000000
1717675308549,71.0000000000,22.0000000000,146.0000000000,664.0000000000,184.0000000000,4.0000000000
1717675308549,70.0000000000,22.0000000000,145.0000000000,655.0000000000,184.0000000000,4.0000000000
1717675308549,70.0000000000,22.0000000000,143.0000000000,650.0000000000,182.0000000000,4.0000000000
1717675308549,69.0000000000,21.0000000000,143.0000000000,689.0000000000,180.0000000000,4.0000000000
1717675308549,69.0000000000,21.0000000000,143.0000000000,683.0000000000,179.0000000000,4.0000000000
1717675308550,68.0000000000,21.0000000000,142.0000000000,674.0000000000,179.0000000000,4.0000000000
1717675308550,67.0000000000,24.0000000000,141.0000000000,667.0000000000,177.0000000000,4.0000000000
1717675308550,67.0000000000,24.0000000000,140.0000000000,660.0000000000,176.0000000000,4.0000000000
1717675308550,67.0000000000,24.0000000000,140.0000000000,653.0000000000,175.0000000000,3.0000000000
1717675308550,67.0000000000,23.0000000000,139.0000000000,647.0000000000,175.0000000000,4.0000000000
1717675308550,66.0000000000,23.0000000000,138.0000000000,639.0000000000,174.0000000000,4.0000000000
1717675308550,66.0000000000,24.0000000000,137.0000000000,635.0000000000,172.0000000000,4.0000000000
1717675308550,65.0000000000,23.0000000000,135.0000000000,779.0000000000,171.0000000000,7.0000000000
1717675308550,65.0000000000,23.0000000000,135.0000000000,766.0000000000,171.0000000000,7.0000000000
1717675308550,64.0000000000,23.0000000000,135.0000000000,758.0000000000,169.0000000000,7.0000000000
1717675308551,64.0000000000,22.0000000000,134.0000000000,748.0000000000,167.0000000000,7.0000000000
1717675308551,63.0000000000,22.0000000000,133.0000000000,742.0000000000,167.0000000000,9.0000000000
1717675308551,63.0000000000,22.0000000000,132.0000000000,732.0000000000,167.0000000000,9.0000000000
1717675308551,63.0000000000,22.0000000000,131.0000000000,723.0000000000,166.0000000000,8.0000000000
1717675308551,62.0000000000,21.0000000000,131.0000000000,716.0000000000,164.0000000000,9.0000000000
1717675308551,63.0000000000,22.0000000000,131.0000000000,707.0000000000,163.0000000000,8.0000000000
1717675308551,62.0000000000,22.0000000000,129.0000000000,701.0000000000,162.0000000000,7.0000000000
1717675308551,62.0000000000,21.0000000000,129.0000000000,693.0000000000,162.0000000000,9.0000000000
1717675308551,62.0000000000,21.0000000000,134.0000000000,684.0000000000,161.0000000000,7.0000000000
1717675308551,61.0000000000,20.0000000000,139.0000000000,679.0000000000,159.0000000000,8.0000000000
1717675308552,60.0000000000,21.0000000000,139.0000000000,673.0000000000,159.0000000000,10.0000000000
1717675308552,60.0000000000,20.0000000000,137.0000000000,791.0000000000,158.0000000000,11.0000000000
1717675308571,60.0000000000,20.0000000000,135.0000000000,779.0000000000,157.0000000000,11.0000000000
1717675308571,59.0000000000,20.0000000000,135.0000000000,768.0000000000,156.0000000000,10.0000000000
1717675308572,60.0000000000,19.0000000000,135.0000000000,759.0000000000,156.0000000000,11.0000000000
1717675308572,59.0000000000,20.0000000000,134.0000000000,750.0000000000,235.0000000000,10.0000000000
1717675308572,59.0000000000,22.0000000000,133.0000000000,742.0000000000,297.0000000000,9.0000000000
1717675308572,58.0000000000,22.0000000000,132.0000000000,732.0000000000,295.0000000000,10.0000000000
1717675308572,57.0000000000,21.0000000000,131.0000000000,764.0000000000,292.0000000000,10.0000000000
1717675308572,57.0000000000,20.0000000000,131.0000000000,755.0000000000,289.0000000000,10.0000000000
1717675308572,57.0000000000,21.0000000000,131.0000000000,745.0000000000,287.0000000000,9.0000000000
1717675308572,56.0000000000,20.0000000000,131.0000000000,832.0000000000,286.0000000000,9.0000000000
1717675308572,56.0000000000,21.0000000000,129.0000000000,831.0000000000,284.0000000000,10.0000000000
1717675308573,56.0000000000,21.0000000000,129.0000000000,819.0000000000,281.0000000000,9.0000000000
1717675308592,55.0000000000,20.0000000000,127.0000000000,808.0000000000,280.0000000000,9.0000000000
1717675308593,55.0000000000,20.0000000000,127.0000000000,800.0000000000,278.0000000000,9.0000000000
1717675308593,55.0000000000,19.0000000000,127.0000000000,790.0000000000,276.0000000000,9.0000000000
1717675308594,54.0000000000,19.0000000000,126.0000000000,782.0000000000,275.0000000000,9.0000000000
1717675308594,54.0000000000,20.0000000000,125.0000000000,771.0000000000,273.0000000000,9.0000000000
1717675308594,54.0000000000,20.0000000000,125.0000000000,761.0000000000,271.0000000000,9.0000000000
1717675308594,54.0000000000,19.0000000000,124.0000000000,755.0000000000,269.0000000000,9.0000000000
1717675308594,53.0000000000,19.0000000000,123.0000000000,744.0000000000,268.0000000000,9.0000000000
1717675308595,53.0000000000,19.0000000000,123.0000000000,738.0000000000,265.0000000000,9.0000000000
1717675308595,52.0000000000,19.0000000000,122.0000000000,729.0000000000,264.0000000000,9.0000000000
1717675308595,52.0000000000,19.0000000000,121.0000000000,720.0000000000,263.0000000000,8.0000000000
1717675308613,52.0000000000,19.0000000000,120.0000000000,715.0000000000,261.0000000000,9.0000000000
1717675308615,51.0000000000,18.0000000000,120.0000000000,706.0000000000,259.0000000000,8.0000000000
1717675308615,51.0000000000,19.0000000000,120.0000000000,700.0000000000,257.0000000000,8.0000000000
1717675308615,51.0000000000,19.0000000000,119.0000000000,691.0000000000,255.0000000000,7.0000000000
1717675308615,51.0000000000,18.0000000000,118.0000000000,686.0000000000,255.0000000000,7.0000000000
1717675308616,50.0000000000,18.0000000000,117.0000000000,679.0000000000,253.0000000000,8.0000000000
1717675308616,50.0000000000,18.0000000000,118.0000000000,671.0000000000,252.0000000000,8.0000000000
1717675308616,49.0000000000,18.0000000000,116.0000000000,665.0000000000,249.0000000000,7.0000000000
1717675308616,49.0000000000,55.0000000000,115.0000000000,658.0000000000,249.0000000000,7.0000000000
1717675308616,49.0000000000,117.0000000000,115.0000000000,652.0000000000,247.0000000000,7.0000000000
1717675308616,49.0000000000,115.0000000000,114.0000000000,646.0000000000,246.0000000000,7.0000000000
1717675308616,49.0000000000,115.0000000000,113.0000000000,692.0000000000,244.0000000000,7.0000000000
1717675308617,48.0000000000,113.0000000000,113.0000000000,684.0000000000,243.0000000000,7.0000000000
1717675308617,48.0000000000,113.0000000000,112.0000000000,675.0000000000,241.0000000000,7.0000000000
1717675308703,47.0000000000,112.0000000000,121.0000000000,670.0000000000,240.0000000000,7.0000000000
1717675308704,47.0000000000,111.0000000000,159.0000000000,662.0000000000,238.0000000000,7.0000000000
1717675308704,47.0000000000,110.0000000000,159.0000000000,654.0000000000,236.0000000000,7.0000000000
1717675308704,47.0000000000,109.0000000000,157.0000000000,646.0000000000,236.0000000000,7.0000000000
1717675308705,47.0000000000,109.0000000000,156.0000000000,639.0000000000,233.0000000000,7.0000000000
1717675308705,46.0000000000,108.0000000000,156.0000000000,635.0000000000,231.0000000000,7.0000000000
1717675308705,46.0000000000,107.0000000000,154.0000000000,627.0000000000,231.0000000000,7.0000000000
1717675308705,46.0000000000,106.0000000000,153.0000000000,621.0000000000,230.0000000000,7.0000000000
1717675308706,46.0000000000,105.0000000000,152.0000000000,615.0000000000,228.0000000000,7.0000000000
1717675308706,46.0000000000,105.0000000000,151.0000000000,610.0000000000,227.0000000000,7.0000000000
1717675308706,45.0000000000,103.0000000000,151.0000000000,604.0000000000,225.0000000000,7.0000000000
1717675308706,44.0000000000,103.0000000000,150.0000000000,598.0000000000,224.0000000000,7.0000000000
1717675308707,44.0000000000,103.0000000000,148.0000000000,593.0000000000,223.0000000000,7.0000000000
1717675308707,44.0000000000,103.0000000000,147.0000000000,675.0000000000,222.0000000000,7.0000000000
1717675308707,44.0000000000,102.0000000000,146.0000000000,664.0000000000,220.0000000000,7.0000000000
1717675308707,43.0000000000,101.0000000000,145.0000000000,657.0000000000,219.0000000000,7.0000000000
1717675308708,44.0000000000,99.0000000000,145.0000000000,651.0000000000,217.0000000000,7.0000000000
1717675308708,43.0000000000,99.0000000000,144.0000000000,643.0000000000,216.0000000000,7.0000000000
1717675308708,43.0000000000,99.0000000000,143.0000000000,636.0000000000,216.0000000000,7.0000000000
1717675308708,43.0000000000,99.0000000000,142.0000000000,632.0000000000,214.0000000000,7.0000000000
1717675308709,42.0000000000,98.0000000000,141.0000000000,624.0000000000,213.0000000000,7.0000000000
1717675308709,41.0000000000,97.0000000000,140.0000000000,619.0000000000,211.0000000000,7.0000000000
1717675308709,41.0000000000,97.0000000000,140.0000000000,623.0000000000,211.0000000000,6.0000000000
1717675308709,41.0000000000,96.0000000000,139.0000000000,617.0000000000,209.0000000000,7.0000000000
1717675308710,41.0000000000,96.0000000000,137.0000000000,611.0000000000,207.0000000000,6.0000000000
1717675308710,39.0000000000,95.0000000000,137.0000000000,604.0000000000,207.0000000000,6.0000000000
1717675308710,40.0000000000,94.0000000000,135.0000000000,599.0000000000,206.0000000000,6.0000000000
1717675308711,49.0000000000,94.0000000000,135.0000000000,603.0000000000,205.0000000000,33.0000000000
1717675308711,72.0000000000,94.0000000000,135.0000000000,595.0000000000,204.0000000000,32.0000000000
1717675308711,71.0000000000,93.0000000000,134.0000000000,591.0000000000,203.0000000000,32.0000000000
1717675308711,71.0000000000,92.0000000000,134.0000000000,583.0000000000,201.0000000000,31.0000000000
1717675308712,71.0000000000,92.0000000000,132.0000000000,579.0000000000,262.0000000000,31.0000000000
1717675308712,71.0000000000,91.0000000000,131.0000000000,574.0000000000,287.0000000000,31.0000000000
1717675308712,70.0000000000,91.0000000000,131.0000000000,569.0000000000,284.0000000000,31.0000000000
1717675308712,70.0000000000,90.0000000000,130.0000000000,563.0000000000,282.0000000000,31.0000000000
1717675308713,69.0000000000,89.0000000000,130.0000000000,558.0000000000,280.0000000000,31.0000000000
1717675308713,68.0000000000,88.0000000000,129.0000000000,553.0000000000,279.0000000000,30.0000000000
1717675308713,67.0000000000,88.0000000000,128.0000000000,614.0000000000,275.0000000000,30.0000000000
1717675308713,67.0000000000,88.0000000000,127.0000000000,606.0000000000,273.0000000000,30.0000000000
1717675308714,67.0000000000,88.0000000000,127.0000000000,600.0000000000,272.0000000000,30.0000000000
1717675308714,67.0000000000,86.0000000000,127.0000000000,591.0000000000,270.0000000000,29.0000000000
1717675308714,66.0000000000,86.0000000000,126.0000000000,588.0000000000,268.0000000000,30.0000000000
1717675308714,65.0000000000,86.0000000000,125.0000000000,581.0000000000,267.0000000000,28.0000000000
1717675308715,65.0000000000,86.0000000000,125.0000000000,575.0000000000,265.0000000000,28.0000000000
1717675308715,65.0000000000,84.0000000000,124.0000000000,568.0000000000,263.0000000000,28.0000000000
1717675308715,64.0000000000,84.0000000000,123.0000000000,564.0000000000,261.0000000000,28.0000000000
1717675308715,63.0000000000,83.0000000000,121.0000000000,559.0000000000,259.0000000000,28.0000000000
1717675308715,63.0000000000,83.0000000000,201.0000000000,606.0000000000,258.0000000000,30.0000000000
1717675308715,63.0000000000,83.0000000000,198.0000000000,643.0000000000,255.0000000000,30.0000000000
1717675308716,63.0000000000,82.0000000000,196.0000000000,636.0000000000,255.0000000000,29.0000000000
1717675308716,63.0000000000,81.0000000000,195.0000000000,630.0000000000,253.0000000000,29.0000000000
1717675308716,62.0000000000,81.0000000000,193.0000000000,623.0000000000,251.0000000000,28.0000000000
1717675308716,62.0000000000,81.0000000000,192.0000000000,661.0000000000,250.0000000000,28.0000000000
1717675308738,61.0000000000,79.0000000000,191.0000000000,653.0000000000,248.0000000000,28.0000000000
1717675308739,61.0000000000,79.0000000000,189.0000000000,647.0000000000,247.0000000000,28.0000000000
1717675308739,60.0000000000,79.0000000000,188.0000000000,639.0000000000,244.0000000000,28.0000000000
1717675308739,60.0000000000,79.0000000000,187.0000000000,632.0000000000,243.0000000000,28.0000000000
1717675308739,60.0000000000,79.0000000000,186.0000000000,625.0000000000,241.0000000000,28.0000000000
1717675308739,60.0000000000,78.0000000000,184.0000000000,620.0000000000,240.0000000000,27.0000000000
1717675308739,59.0000000000,78.0000000000,184.0000000000,612.0000000000,239.0000000000,27.0000000000
1717675308739,59.0000000000,77.0000000000,183.0000000000,606.0000000000,238.0000000000,27.0000000000
1717675308739,58.0000000000,76.0000000000,182.0000000000,665.0000000000,236.0000000000,28.0000000000
1717675308740,58.0000000000,76.0000000000,180.0000000000,659.0000000000,235.0000000000,28.0000000000
1717675308740,57.0000000000,76.0000000000,179.0000000000,651.0000000000,232.0000000000,28.0000000000
1717675308740,57.0000000000,75.0000000000,178.0000000000,734.0000000000,231.0000000000,28.0000000000
1717675308740,56.0000000000,75.0000000000,176.0000000000,756.0000000000,231.0000000000,28.0000000000
1717675308757,56.0000000000,74.0000000000,176.0000000000,748.0000000000,229.0000000000,27.0000000000
1717675308759,56.0000000000,73.0000000000,175.0000000000,739.0000000000,227.0000000000,28.0000000000
1717675308759,56.0000000000,73.0000000000,174.0000000000,728.0000000000,227.0000000000,27.0000000000
1717675308759,56.0000000000,72.0000000000,172.0000000000,719.0000000000,225.0000000000,27.0000000000
1717675308760,55.0000000000,71.0000000000,172.0000000000,713.0000000000,224.0000000000,27.0000000000
1717675308760,54.0000000000,71.0000000000,171.0000000000,750.0000000000,222.0000000000,27.0000000000
1717675308760,55.0000000000,71.0000000000,169.0000000000,739.0000000000,220.0000000000,27.0000000000
1717675308760,54.0000000000,71.0000000000,167.0000000000,731.0000000000,220.0000000000,26.0000000000
1717675308761,54.0000000000,71.0000000000,199.0000000000,723.0000000000,283.0000000000,25.0000000000
1717675308761,53.0000000000,70.0000000000,198.0000000000,715.0000000000,281.0000000000,25.0000000000
1717675308761,52.0000000000,70.0000000000,196.0000000000,705.0000000000,280.0000000000,25.0000000000
1717675308779,52.0000000000,70.0000000000,195.0000000000,697.0000000000,276.0000000000,25.0000000000
1717675308782,52.0000000000,69.0000000000,193.0000000000,689.0000000000,275.0000000000,25.0000000000
1717675308783,52.0000000000,68.0000000000,193.0000000000,683.0000000000,272.0000000000,25.0000000000
1717675308783,51.0000000000,68.0000000000,192.0000000000,675.0000000000,271.0000000000,25.0000000000
1717675308784,51.0000000000,68.0000000000,191.0000000000,667.0000000000,269.0000000000,24.0000000000
1717675308784,51.0000000000,67.0000000000,189.0000000000,659.0000000000,267.0000000000,24.0000000000
1717675308784,51.0000000000,67.0000000000,188.0000000000,654.0000000000,265.0000000000,24.0000000000
1717675308785,50.0000000000,67.0000000000,187.0000000000,647.0000000000,263.0000000000,24.0000000000
1717675308786,50.0000000000,66.0000000000,185.0000000000,639.0000000000,262.0000000000,24.0000000000
1717675308787,49.0000000000,66.0000000000,184.0000000000,633.0000000000,259.0000000000,24.0000000000
1717675308788,49.0000000000,65.0000000000,183.0000000000,628.0000000000,258.0000000000,24.0000000000
1717675308789,49.0000000000,65.0000000000,182.0000000000,622.0000000000,255.0000000000,24.0000000000
1717675308789,49.0000000000,65.0000000000,181.0000000000,615.0000000000,255.0000000000,24.0000000000
1717675308790,48.0000000000,63.0000000000,179.0000000000,609.0000000000,253.0000000000,24.0000000000
1717675308791,48.0000000000,63.0000000000,178.0000000000,604.0000000000,251.0000000000,24.0000000000
1717675308809,48.0000000000,63.0000000000,177.0000000000,598.0000000000,249.0000000000,23.0000000000
1717675308809,48.0000000000,63.0000000000,176.0000000000,591.0000000000,248.0000000000,23.0000000000
1717675308809,47.0000000000,63.0000000000,175.0000000000,586.0000000000,247.0000000000,23.0000000000
1717675308810,47.0000000000,63.0000000000,174.0000000000,582.0000000000,245.0000000000,22.0000000000
1717675308810,46.0000000000,62.0000000000,173.0000000000,575.0000000000,243.0000000000,23.0000000000
1717675308810,47.0000000000,62.0000000000,172.0000000000,570.0000000000,242.0000000000,22.0000000000
1717675308810,46.0000000000,61.0000000000,171.0000000000,564.0000000000,240.0000000000,22.0000000000
1717675308810,46.0000000000,61.0000000000,170.0000000000,560.0000000000,239.0000000000,22.0000000000
1717675308810,45.0000000000,61.0000000000,169.0000000000,556.0000000000,238.0000000000,22.0000000000
1717675308810,45.0000000000,60.0000000000,167.0000000000,550.0000000000,236.0000000000,22.0000000000
1717675308810,44.0000000000,60.0000000000,167.0000000000,545.0000000000,235.0000000000,22.0000000000
1717675308824,44.0000000000,60.0000000000,166.0000000000,541.0000000000,233.0000000000,21.0000000000
1717675308825,45.0000000000,59.0000000000,165.0000000000,536.0000000000,231.0000000000,21.0000000000
1717675308825,44.0000000000,59.0000000000,163.0000000000,531.0000000000,231.0000000000,21.0000000000
1717675308825,44.0000000000,59.0000000000,163.0000000000,527.0000000000,229.0000000000,21.0000000000
1717675308825,44.0000000000,58.0000000000,162.0000000000,522.0000000000,227.0000000000,21.0000000000
1717675308825,44.0000000000,58.0000000000,161.0000000000,519.0000000000,226.0000000000,20.0000000000
1717675308839,43.0000000000,57.0000000000,161.0000000000,514.0000000000,225.0000000000,20.0000000000
1717675308840,43.0000000000,131.0000000000,159.0000000000,510.0000000000,224.0000000000,20.0000000000
1717675308840,43.0000000000,129.0000000000,159.0000000000,505.0000000000,222.0000000000,20.0000000000
1717675308840,42.0000000000,127.0000000000,158.0000000000,500.0000000000,220.0000000000,20.0000000000
1717675308840,41.0000000000,127.0000000000,157.0000000000,497.0000000000,220.0000000000,20.0000000000
1717675308840,41.0000000000,126.0000000000,156.0000000000,492.0000000000,217.0000000000,19.0000000000
1717675308840,41.0000000000,125.0000000000,155.0000000000,487.0000000000,216.0000000000,19.0000000000
1717675308840,41.0000000000,124.0000000000,154.0000000000,484.0000000000,215.0000000000,19.0000000000
1717675308840,40.0000000000,123.0000000000,153.0000000000,481.0000000000,214.0000000000,19.0000000000
1717675308855,40.0000000000,124.0000000000,152.0000000000,478.0000000000,212.0000000000,19.0000000000
1717675308856,39.0000000000,123.0000000000,151.0000000000,474.0000000000,211.0000000000,19.0000000000
1717675308856,39.0000000000,121.0000000000,150.0000000000,470.0000000000,209.0000000000,19.0000000000
1717675308856,39.0000000000,120.0000000000,149.0000000000,466.0000000000,207.0000000000,19.0000000000
1717675308856,39.0000000000,120.0000000000,148.0000000000,462.0000000000,207.0000000000,19.0000000000
1717675308856,39.0000000000,120.0000000000,147.0000000000,459.0000000000,206.0000000000,19.0000000000
1717675308856,39.0000000000,118.0000000000,147.0000000000,455.0000000000,205.0000000000,19.0000000000
1717675308856,39.0000000000,118.0000000000,180.0000000000,451.0000000000,204.0000000000,19.0000000000
1717675308873,39.0000000000,116.0000000000,179.0000000000,448.0000000000,203.0000000000,18.0000000000
1717675308874,39.0000000000,116.0000000000,177.0000000000,445.0000000000,201.0000000000,17.0000000000
1717675308874,39.0000000000,115.0000000000,176.0000000000,441.0000000000,199.0000000000,17.0000000000
1717675308874,38.0000000000,114.0000000000,175.0000000000,438.0000000000,199.0000000000,18.0000000000
1717675308874,38.0000000000,113.0000000000,174.0000000000,435.0000000000,198.0000000000,17.0000000000
1717675308874,38.0000000000,112.0000000000,172.0000000000,432.0000000000,196.0000000000,18.0000000000
1717675308874,38.0000000000,112.0000000000,171.0000000000,428.0000000000,195.0000000000,17.0000000000
1717675308874,37.0000000000,111.0000000000,170.0000000000,425.0000000000,194.0000000000,18.0000000000
1717675308875,37.0000000000,111.0000000000,169.0000000000,519.0000000000,192.0000000000,17.0000000000
1717675308875,36.0000000000,110.0000000000,167.0000000000,513.0000000000,192.0000000000,17.0000000000
1717675308875,36.0000000000,109.0000000000,167.0000000000,508.0000000000,191.0000000000,17.0000000000
1717675308905,35.0000000000,108.0000000000,166.0000000000,503.0000000000,189.0000000000,17.0000000000
1717675308906,35.0000000000,108.0000000000,164.0000000000,497.0000000000,189.0000000000,17.0000000000
1717675308906,35.0000000000,107.0000000000,163.0000000000,492.0000000000,188.0000000000,17.0000000000
1717675308906,35.0000000000,107.0000000000,163.0000000000,487.0000000000,187.0000000000,17.0000000000
1717675308907,35.0000000000,105.0000000000,161.0000000000,483.0000000000,185.0000000000,16.0000000000
1717675308907,35.0000000000,105.0000000000,160.0000000000,479.0000000000,184.0000000000,16.0000000000
1717675308907,35.0000000000,103.0000000000,159.0000000000,473.0000000000,184.0000000000,16.0000000000
1717675308907,35.0000000000,103.0000000000,159.0000000000,470.0000000000,182.0000000000,15.0000000000
1717675308907,34.0000000000,103.0000000000,158.0000000000,465.0000000000,181.0000000000,15.0000000000
1717675308907,34.0000000000,102.0000000000,156.0000000000,462.0000000000,179.0000000000,16.0000000000
1717675308907,33.0000000000,102.0000000000,156.0000000000,457.0000000000,179.0000000000,15.0000000000
1717675308908,33.0000000000,101.0000000000,155.0000000000,454.0000000000,178.0000000000,15.0000000000
1717675308908,33.0000000000,100.0000000000,153.0000000000,450.0000000000,177.0000000000,15.0000000000
1717675308908,33.0000000000,99.0000000000,153.0000000000,446.0000000000,176.0000000000,15.0000000000
1717675308908,33.0000000000,99.0000000000,152.0000000000,441.0000000000,175.0000000000,15.0000000000
1717675308908,32.0000000000,99.0000000000,151.0000000000,439.0000000000,174.0000000000,15.0000000000
1717675308908,32.0000000000,98.0000000000,150.0000000000,435.0000000000,173.0000000000,15.0000000000
1717675308923,35.0000000000,97.0000000000,148.0000000000,432.0000000000,172.0000000000,15.0000000000
1717675308924,35.0000000000,97.0000000000,147.0000000000,428.0000000000,172.0000000000,15.0000000000
1717675308924,35.0000000000,96.0000000000,147.0000000000,423.0000000000,171.0000000000,15.0000000000
1717675308924,35.0000000000,96.0000000000,147.0000000000,422.0000000000,169.0000000000,15.0000000000
1717675308925,33.0000000000,96.0000000000,145.0000000000,519.0000000000,237.0000000000,15.0000000000
1717675308925,34.0000000000,95.0000000000,145.0000000000,512.0000000000,304.0000000000,15.0000000000
1717675308925,33.0000000000,94.0000000000,156.0000000000,507.0000000000,327.0000000000,15.0000000000
1717675308925,34.0000000000,93.0000000000,155.0000000000,503.0000000000,325.0000000000,15.0000000000
1717675308945,33.0000000000,92.0000000000,154.0000000000,497.0000000000,323.0000000000,15.0000000000
1717675308946,33.0000000000,92.0000000000,153.0000000000,492.0000000000,319.0000000000,16.0000000000
1717675308946,33.0000000000,92.0000000000,152.0000000000,487.0000000000,318.0000000000,15.0000000000
1717675308946,33.0000000000,91.0000000000,152.0000000000,484.0000000000,315.0000000000,15.0000000000
1717675308947,33.0000000000,91.0000000000,150.0000000000,480.0000000000,312.0000000000,15.0000000000
1717675308947,32.0000000000,90.0000000000,150.0000000000,476.0000000000,311.0000000000,15.0000000000
1717675308947,31.0000000000,89.0000000000,148.0000000000,472.0000000000,308.0000000000,15.0000000000
1717675308947,31.0000000000,89.0000000000,147.0000000000,467.0000000000,306.0000000000,15.0000000000
1717675308948,31.0000000000,88.0000000000,147.0000000000,463.0000000000,304.0000000000,15.0000000000
1717675308949,31.0000000000,88.0000000000,145.0000000000,460.0000000000,303.0000000000,15.0000000000
1717675308949,31.0000000000,88.0000000000,145.0000000000,455.0000000000,300.0000000000,15.0000000000
1717675308950,31.0000000000,87.0000000000,150.0000000000,451.0000000000,297.0000000000,15.0000000000
1717675308950,31.0000000000,87.0000000000,148.0000000000,448.0000000000,295.0000000000,15.0000000000
1717675308950,31.0000000000,86.0000000000,147.0000000000,444.0000000000,294.0000000000,15.0000000000
1717675308978,31.0000000000,86.0000000000,147.0000000000,440.0000000000,292.0000000000,14.0000000000
1717675308979,30.0000000000,84.0000000000,145.0000000000,437.0000000000,290.0000000000,14.0000000000
1717675308979,30.0000000000,84.0000000000,144.0000000000,433.0000000000,287.0000000000,14.0000000000
1717675308979,30.0000000000,84.0000000000,152.0000000000,430.0000000000,287.0000000000,14.0000000000
1717675308979,30.0000000000,83.0000000000,152.0000000000,425.0000000000,284.0000000000,14.0000000000
1717675308979,30.0000000000,83.0000000000,150.0000000000,423.0000000000,283.0000000000,14.0000000000
1717675308979,30.0000000000,82.0000000000,184.0000000000,420.0000000000,280.0000000000,14.0000000000
1717675308980,29.0000000000,82.0000000000,220.0000000000,416.0000000000,279.0000000000,14.0000000000
1717675308980,29.0000000000,81.0000000000,219.0000000000,413.0000000000,277.0000000000,14.0000000000
1717675308980,29.0000000000,81.0000000000,216.0000000000,410.0000000000,275.0000000000,14.0000000000
1717675308980,29.0000000000,80.0000000000,216.0000000000,408.0000000000,273.0000000000,14.0000000000
1717675308980,29.0000000000,80.0000000000,214.0000000000,404.0000000000,271.0000000000,13.0000000000
1717675308980,29.0000000000,79.0000000000,212.0000000000,401.0000000000,270.0000000000,14.0000000000
1717675308980,29.0000000000,79.0000000000,211.0000000000,399.0000000000,268.0000000000,13.0000000000
1717675308980,28.0000000000,79.0000000000,209.0000000000,397.0000000000,271.0000000000,13.0000000000
1717675308992,28.0000000000,78.0000000000,207.0000000000,393.0000000000,270.0000000000,13.0000000000
1717675308993,28.0000000000,78.0000000000,207.0000000000,391.0000000000,268.0000000000,13.0000000000
1717675308993,28.0000000000,78.0000000000,206.0000000000,388.0000000000,265.0000000000,13.0000000000
1717675308993,28.0000000000,77.0000000000,204.0000000000,386.0000000000,263.0000000000,12.0000000000
1717675308993,28.0000000000,76.0000000000,203.0000000000,384.0000000000,263.0000000000,12.0000000000
1717675308993,27.0000000000,76.0000000000,201.0000000000,380.0000000000,261.0000000000,12.0000000000
1717675308994,27.0000000000,76.0000000000,199.0000000000,378.0000000000,259.0000000000,12.0000000000
1717675308994,28.0000000000,75.0000000000,199.0000000000,376.0000000000,258.0000000000,12.0000000000
1717675308994,28.0000000000,75.0000000000,198.0000000000,374.0000000000,255.0000000000,12.0000000000
1717675309008,27.0000000000,75.0000000000,197.0000000000,371.0000000000,270.0000000000,12.0000000000
1717675309008,27.0000000000,73.0000000000,195.0000000000,368.0000000000,331.0000000000,12.0000000000
1717675309008,27.0000000000,73.0000000000,195.0000000000,366.0000000000,327.0000000000,12.0000000000
1717675309009,27.0000000000,73.0000000000,192.0000000000,364.0000000000,324.0000000000,12.0000000000
1717675309009,26.0000000000,72.0000000000,192.0000000000,364.0000000000,323.0000000000,12.0000000000
1717675309009,27.0000000000,71.0000000000,191.0000000000,432.0000000000,319.0000000000,12.0000000000
1717675309023,26.0000000000,71.0000000000,190.0000000000,428.0000000000,318.0000000000,12.0000000000
1717675309024,26.0000000000,71.0000000000,188.0000000000,423.0000000000,315.0000000000,12.0000000000
1717675309024,25.0000000000,71.0000000000,188.0000000000,420.0000000000,313.0000000000,12.0000000000
1717675309024,25.0000000000,71.0000000000,187.0000000000,416.0000000000,312.0000000000,12.0000000000
1717675309024,25.0000000000,70.0000000000,185.0000000000,412.0000000000,308.0000000000,12.0000000000
1717675309024,25.0000000000,70.0000000000,184.0000000000,411.0000000000,306.0000000000,12.0000000000
1717675309024,25.0000000000,69.0000000000,183.0000000000,407.0000000000,304.0000000000,11.0000000000
1717675309024,25.0000000000,69.0000000000,182.0000000000,403.0000000000,303.0000000000,11.0000000000
1717675309024,25.0000000000,68.0000000000,180.0000000000,399.0000000000,300.0000000000,11.0000000000
1717675309038,25.0000000000,67.0000000000,179.0000000000,460.0000000000,298.0000000000,12.0000000000
1717675309038,24.0000000000,67.0000000000,179.0000000000,526.0000000000,295.0000000000,15.0000000000
1717675309038,24.0000000000,67.0000000000,178.0000000000,519.0000000000,294.0000000000,15.0000000000
1717675309039,24.0000000000,67.0000000000,177.0000000000,515.0000000000,292.0000000000,15.0000000000
1717675309039,39.0000000000,66.0000000000,176.0000000000,511.0000000000,290.0000000000,15.0000000000
1717675309039,39.0000000000,66.0000000000,175.0000000000,505.0000000000,287.0000000000,15.0000000000
1717675309039,38.0000000000,66.0000000000,174.0000000000,503.0000000000,287.0000000000,15.0000000000
1717675309039,38.0000000000,65.0000000000,173.0000000000,659.0000000000,284.0000000000,15.0000000000
1717675309039,38.0000000000,65.0000000000,172.0000000000,652.0000000000,283.0000000000,15.0000000000
1717675309053,38.0000000000,64.0000000000,170.0000000000,644.0000000000,280.0000000000,15.0000000000
1717675309055,37.0000000000,63.0000000000,169.0000000000,636.0000000000,280.0000000000,15.0000000000
1717675309055,37.0000000000,63.0000000000,168.0000000000,629.0000000000,278.0000000000,15.0000000000
1717675309055,36.0000000000,63.0000000000,167.0000000000,624.0000000000,275.0000000000,15.0000000000
1717675309055,36.0000000000,63.0000000000,167.0000000000,616.0000000000,273.0000000000,15.0000000000
1717675309055,36.0000000000,63.0000000000,166.0000000000,609.0000000000,271.0000000000,15.0000000000
1717675309056,35.0000000000,62.0000000000,164.0000000000,604.0000000000,270.0000000000,15.0000000000
1717675309056,35.0000000000,62.0000000000,163.0000000000,599.0000000000,268.0000000000,15.0000000000
1717675309072,35.0000000000,62.0000000000,163.0000000000,591.0000000000,267.0000000000,14.0000000000
1717675309072,35.0000000000,62.0000000000,162.0000000000,588.0000000000,265.0000000000,14.0000000000
1717675309072,35.0000000000,61.0000000000,161.0000000000,583.0000000000,263.0000000000,14.0000000000
1717675309072,35.0000000000,60.0000000000,160.0000000000,578.0000000000,262.0000000000,14.0000000000
1717675309072,34.0000000000,60.0000000000,159.0000000000,572.0000000000,260.0000000000,14.0000000000
1717675309073,34.0000000000,60.0000000000,158.0000000000,567.0000000000,259.0000000000,14.0000000000
1717675309073,34.0000000000,60.0000000000,158.0000000000,560.0000000000,257.0000000000,14.0000000000
1717675309073,34.0000000000,60.0000000000,156.0000000000,556.0000000000,255.0000000000,14.0000000000
1717675309073,33.0000000000,59.0000000000,156.0000000000,551.0000000000,254.0000000000,14.0000000000
1717675309086,33.0000000000,59.0000000000,155.0000000000,545.0000000000,252.0000000000,14.0000000000
1717675309087,33.0000000000,58.0000000000,154.0000000000,540.0000000000,252.0000000000,13.0000000000
1717675309087,32.0000000000,57.0000000000,153.0000000000,536.0000000000,249.0000000000,13.0000000000
1717675309087,32.0000000000,57.0000000000,152.0000000000,531.0000000000,248.0000000000,14.0000000000
1717675309087,32.0000000000,57.0000000000,152.0000000000,527.0000000000,247.0000000000,13.0000000000
1717675309087,31.0000000000,57.0000000000,151.0000000000,521.0000000000,245.0000000000,13.0000000000
1717675309087,31.0000000000,57.0000000000,150.0000000000,517.0000000000,243.0000000000,13.0000000000
1717675309100,31.0000000000,56.0000000000,199.0000000000,514.0000000000,243.0000000000,33.0000000000
1717675309101,31.0000000000,56.0000000000,212.0000000000,508.0000000000,241.0000000000,33.0000000000
1717675309101,31.0000000000,56.0000000000,211.0000000000,504.0000000000,240.0000000000,32.0000000000
1717675309101,31.0000000000,56.0000000000,209.0000000000,499.0000000000,239.0000000000,31.0000000000
1717675309101,31.0000000000,55.0000000000,208.0000000000,496.0000000000,237.0000000000,31.0000000000
1717675309101,31.0000000000,55.0000000000,206.0000000000,492.0000000000,236.0000000000,31.0000000000
1717675309101,30.0000000000,55.0000000000,205.0000000000,487.0000000000,235.0000000000,31.0000000000
1717675309101,30.0000000000,54.0000000000,204.0000000000,483.0000000000,232.0000000000,31.0000000000
1717675309113,30.0000000000,54.0000000000,203.0000000000,480.0000000000,231.0000000000,31.0000000000
1717675309114,30.0000000000,54.0000000000,201.0000000000,476.0000000000,230.0000000000,31.0000000000
1717675309114,30.0000000000,54.0000000000,199.0000000000,472.0000000000,229.0000000000,30.0000000000
1717675309114,29.0000000000,53.0000000000,199.0000000000,468.0000000000,227.0000000000,30.0000000000
1717675309114,29.0000000000,53.0000000000,198.0000000000,465.0000000000,226.0000000000,30.0000000000
1717675309115,30.0000000000,52.0000000000,196.0000000000,461.0000000000,225.0000000000,30.0000000000
1717675309115,29.0000000000,52.0000000000,195.0000000000,457.0000000000,224.0000000000,29.0000000000
1717675309128,29.0000000000,51.0000000000,194.0000000000,454.0000000000,222.0000000000,29.0000000000
1717675309129,29.0000000000,51.0000000000,192.0000000000,451.0000000000,222.0000000000,29.0000000000
1717675309129,28.0000000000,51.0000000000,191.0000000000,448.0000000000,220.0000000000,29.0000000000
1717675309129,28.0000000000,51.0000000000,190.0000000000,444.0000000000,219.0000000000,29.0000000000
1717675309129,28.0000000000,51.0000000000,189.0000000000,440.0000000000,217.0000000000,28.0000000000
1717675309129,28.0000000000,50.0000000000,188.0000000000,436.0000000000,216.0000000000,28.0000000000
1717675309129,28.0000000000,50.0000000000,187.0000000000,499.0000000000,215.0000000000,28.0000000000
1717675309130,28.0000000000,50.0000000000,185.0000000000,492.0000000000,214.0000000000,28.0000000000
1717675309130,28.0000000000,49.0000000000,184.0000000000,487.0000000000,212.0000000000,28.0000000000
1717675309151,28.0000000000,49.0000000000,184.0000000000,483.0000000000,211.0000000000,28.0000000000
1717675309151,28.0000000000,48.0000000000,183.0000000000,479.0000000000,210.0000000000,27.0000000000
1717675309152,28.0000000000,49.0000000000,181.0000000000,475.0000000000,209.0000000000,27.0000000000
1717675309153,27.0000000000,48.0000000000,180.0000000000,470.0000000000,207.0000000000,27.0000000000
1717675309153,27.0000000000,48.0000000000,179.0000000000,466.0000000000,207.0000000000,27.0000000000
1717675309153,27.0000000000,48.0000000000,178.0000000000,463.0000000000,206.0000000000,27.0000000000
1717675309153,27.0000000000,48.0000000000,177.0000000000,458.0000000000,204.0000000000,27.0000000000
1717675309154,27.0000000000,47.0000000000,176.0000000000,454.0000000000,203.0000000000,27.0000000000
1717675309154,27.0000000000,47.0000000000,175.0000000000,449.0000000000,201.0000000000,26.0000000000
1717675309154,26.0000000000,47.0000000000,174.0000000000,447.0000000000,199.0000000000,25.0000000000
1717675309154,26.0000000000,47.0000000000,173.0000000000,443.0000000000,199.0000000000,25.0000000000
1717675309155,25.0000000000,46.0000000000,172.0000000000,439.0000000000,199.0000000000,25.0000000000
1717675309155,25.0000000000,46.0000000000,171.0000000000,435.0000000000,198.0000000000,25.0000000000
1717675309189,25.0000000000,46.0000000000,169.0000000000,432.0000000000,196.0000000000,25.0000000000
1717675309189,25.0000000000,46.0000000000,168.0000000000,428.0000000000,195.0000000000,25.0000000000
1717675309189,25.0000000000,45.0000000000,167.0000000000,425.0000000000,195.0000000000,25.0000000000
1717675309190,25.0000000000,45.0000000000,167.0000000000,422.0000000000,193.0000000000,24.0000000000
1717675309190,24.0000000000,44.0000000000,166.0000000000,419.0000000000,192.0000000000,24.0000000000
1717675309190,25.0000000000,44.0000000000,165.0000000000,415.0000000000,191.0000000000,24.0000000000
1717675309190,24.0000000000,44.0000000000,163.0000000000,412.0000000000,190.0000000000,24.0000000000
1717675309190,24.0000000000,44.0000000000,163.0000000000,409.0000000000,189.0000000000,24.0000000000
1717675309190,30.0000000000,44.0000000000,162.0000000000,408.0000000000,188.0000000000,24.0000000000
1717675309191,30.0000000000,44.0000000000,161.0000000000,404.0000000000,187.0000000000,24.0000000000
1717675309191,30.0000000000,43.0000000000,159.0000000000,472.0000000000,185.0000000000,24.0000000000
1717675309191,29.0000000000,43.0000000000,159.0000000000,467.0000000000,185.0000000000,24.0000000000
1717675309191,29.0000000000,43.0000000000,159.0000000000,462.0000000000,184.0000000000,23.0000000000
1717675309191,28.0000000000,54.0000000000,158.0000000000,459.0000000000,183.0000000000,23.0000000000
1717675309191,28.0000000000,54.0000000000,156.0000000000,455.0000000000,182.0000000000,24.0000000000
1717675309191,28.0000000000,54.0000000000,156.0000000000,449.0000000000,181.0000000000,23.0000000000
1717675309191,28.0000000000,53.0000000000,155.0000000000,446.0000000000,179.0000000000,23.0000000000
1717675309192,28.0000000000,52.0000000000,153.0000000000,443.0000000000,179.0000000000,23.0000000000
1717675309192,28.0000000000,52.0000000000,153.0000000000,439.0000000000,178.0000000000,23.0000000000
1717675309192,28.0000000000,52.0000000000,152.0000000000,435.0000000000,177.0000000000,22.0000000000
1717675309208,28.0000000000,51.0000000000,152.0000000000,431.0000000000,176.0000000000,22.0000000000
1717675309208,27.0000000000,51.0000000000,151.0000000000,428.0000000000,176.0000000000,22.0000000000
1717675309209,27.0000000000,51.0000000000,150.0000000000,423.0000000000,174.0000000000,22.0000000000
1717675309209,27.0000000000,50.0000000000,149.0000000000,420.0000000000,173.0000000000,22.0000000000
1717675309209,27.0000000000,50.0000000000,148.0000000000,416.0000000000,172.0000000000,22.0000000000
1717675309209,27.0000000000,49.0000000000,147.0000000000,414.0000000000,172.0000000000,21.0000000000
1717675309209,26.0000000000,49.0000000000,183.0000000000,411.0000000000,171.0000000000,21.0000000000
1717675309209,25.0000000000,49.0000000000,181.0000000000,408.0000000000,169.0000000000,21.0000000000
1717675309223,26.0000000000,48.0000000000,179.0000000000,403.0000000000,169.0000000000,20.0000000000
1717675309224,25.0000000000,48.0000000000,178.0000000000,401.0000000000,167.0000000000,20.0000000000
1717675309224,25.0000000000,48.0000000000,177.0000000000,398.0000000000,167.0000000000,20.0000000000
1717675309224,26.0000000000,48.0000000000,176.0000000000,395.0000000000,166.0000000000,20.0000000000
1717675309224,25.0000000000,48.0000000000,175.0000000000,391.0000000000,165.0000000000,20.0000000000
1717675309224,25.0000000000,48.0000000000,174.0000000000,390.0000000000,164.0000000000,20.0000000000
1717675309224,25.0000000000,47.0000000000,172.0000000000,387.0000000000,163.0000000000,19.0000000000
1717675309224,25.0000000000,47.0000000000,172.0000000000,384.0000000000,163.0000000000,19.0000000000
1717675309224,25.0000000000,46.0000000000,171.0000000000,382.0000000000,255.0000000000,19.0000000000
1717675309239,24.0000000000,46.0000000000,169.0000000000,379.0000000000,252.0000000000,19.0000000000
1717675309240,24.0000000000,46.0000000000,167.0000000000,376.0000000000,251.0000000000,19.0000000000
1717675309240,24.0000000000,46.0000000000,167.0000000000,445.0000000000,248.0000000000,19.0000000000
1717675309241,27.0000000000,45.0000000000,166.0000000000,440.0000000000,248.0000000000,19.0000000000
1717675309241,27.0000000000,45.0000000000,165.0000000000,435.0000000000,245.0000000000,19.0000000000
1717675309241,27.0000000000,44.0000000000,164.0000000000,432.0000000000,243.0000000000,19.0000000000
1717675309241,26.0000000000,44.0000000000,163.0000000000,428.0000000000,241.0000000000,19.0000000000
1717675309242,25.0000000000,44.0000000000,162.0000000000,423.0000000000,240.0000000000,19.0000000000
1717675309242,25.0000000000,44.0000000000,161.0000000000,508.0000000000,238.0000000000,19.0000000000
1717675309260,25.0000000000,44.0000000000,160.0000000000,504.0000000000,236.0000000000,18.0000000000
1717675309260,25.0000000000,43.0000000000,159.0000000000,499.0000000000,235.0000000000,18.0000000000
1717675309260,24.0000000000,43.0000000000,159.0000000000,493.0000000000,233.0000000000,18.0000000000
1717675309260,25.0000000000,43.0000000000,158.0000000000,487.0000000000,231.0000000000,18.0000000000
1717675309260,25.0000000000,43.0000000000,156.0000000000,485.0000000000,231.0000000000,18.0000000000
1717675309261,25.0000000000,42.0000000000,156.0000000000,480.0000000000,229.0000000000,18.0000000000
1717675309261,25.0000000000,41.0000000000,155.0000000000,476.0000000000,228.0000000000,17.0000000000
1717675309261,25.0000000000,41.0000000000,153.0000000000,472.0000000000,227.0000000000,17.0000000000
1717675309261,25.0000000000,41.0000000000,153.0000000000,468.0000000000,225.0000000000,17.0000000000
1717675309261,24.0000000000,41.0000000000,152.0000000000,463.0000000000,230.0000000000,17.0000000000
1717675309261,24.0000000000,41.0000000000,152.0000000000,460.0000000000,228.0000000000,17.0000000000
1717675309276,24.0000000000,40.0000000000,150.0000000000,455.0000000000,227.0000000000,17.0000000000
1717675309276,24.0000000000,40.0000000000,149.0000000000,467.0000000000,225.0000000000,17.0000000000
1717675309276,24.0000000000,39.0000000000,149.0000000000,462.0000000000,223.0000000000,17.0000000000
1717675309276,24.0000000000,39.0000000000,148.0000000000,457.0000000000,222.0000000000,17.0000000000
1717675309277,24.0000000000,39.0000000000,147.0000000000,454.0000000000,220.0000000000,16.0000000000
1717675309277,24.0000000000,39.0000000000,147.0000000000,451.0000000000,220.0000000000,16.0000000000
1717675309277,24.0000000000,39.0000000000,146.0000000000,446.0000000000,217.0000000000,16.0000000000
1717675309277,24.0000000000,39.0000000000,145.0000000000,443.0000000000,216.0000000000,16.0000000000
1717675309277,24.0000000000,39.0000000000,144.0000000000,439.0000000000,216.0000000000,15.0000000000
1717675309290,24.0000000000,39.0000000000,163.0000000000,435.0000000000,216.0000000000,16.0000000000
1717675309290,24.0000000000,39.0000000000,162.0000000000,432.0000000000,214.0000000000,15.0000000000
1717675309290,23.0000000000,38.0000000000,161.0000000000,428.0000000000,212.0000000000,16.0000000000
1717675309290,24.0000000000,38.0000000000,159.0000000000,423.0000000000,211.0000000000,15.0000000000
1717675309290,24.0000000000,38.0000000000,159.0000000000,420.0000000000,209.0000000000,15.0000000000
1717675309291,24.0000000000,38.0000000000,158.0000000000,418.0000000000,208.0000000000,15.0000000000
1717675309306,28.0000000000,38.0000000000,157.0000000000,415.0000000000,207.0000000000,15.0000000000
1717675309307,58.0000000000,37.0000000000,156.0000000000,411.0000000000,206.0000000000,15.0000000000
1717675309307,57.0000000000,37.0000000000,155.0000000000,408.0000000000,204.0000000000,15.0000000000
1717675309308,57.0000000000,36.0000000000,153.0000000000,406.0000000000,203.0000000000,15.0000000000
1717675309308,56.0000000000,36.0000000000,152.0000000000,401.0000000000,202.0000000000,15.0000000000
1717675309308,56.0000000000,36.0000000000,152.0000000000,399.0000000000,201.0000000000,15.0000000000
1717675309308,56.0000000000,36.0000000000,151.0000000000,396.0000000000,199.0000000000,15.0000000000
1717675309308,55.0000000000,35.0000000000,150.0000000000,392.0000000000,199.0000000000,15.0000000000
1717675309308,55.0000000000,35.0000000000,149.0000000000,390.0000000000,197.0000000000,15.0000000000
1717675309308,55.0000000000,35.0000000000,148.0000000000,387.0000000000,211.0000000000,15.0000000000
1717675309309,54.0000000000,35.0000000000,147.0000000000,384.0000000000,233.0000000000,15.0000000000
1717675309326,54.0000000000,35.0000000000,147.0000000000,382.0000000000,231.0000000000,14.0000000000
1717675309327,54.0000000000,35.0000000000,145.0000000000,379.0000000000,231.0000000000,14.0000000000
1717675309328,53.0000000000,35.0000000000,145.0000000000,376.0000000000,228.0000000000,14.0000000000
1717675309328,53.0000000000,34.0000000000,143.0000000000,373.0000000000,227.0000000000,14.0000000000
1717675309328,52.0000000000,34.0000000000,143.0000000000,417.0000000000,225.0000000000,14.0000000000
1717675309328,51.0000000000,34.0000000000,142.0000000000,412.0000000000,224.0000000000,14.0000000000
1717675309329,51.0000000000,34.0000000000,142.0000000000,457.0000000000,223.0000000000,14.0000000000
1717675309329,51.0000000000,33.0000000000,140.0000000000,489.0000000000,221.0000000000,14.0000000000
1717675309329,51.0000000000,33.0000000000,140.0000000000,486.0000000000,220.0000000000,14.0000000000
1717675309330,51.0000000000,33.0000000000,139.0000000000,481.0000000000,218.0000000000,14.0000000000
1717675309330,50.0000000000,33.0000000000,138.0000000000,476.0000000000,217.0000000000,14.0000000000
1717675309356,50.0000000000,33.0000000000,137.0000000000,472.0000000000,216.0000000000,14.0000000000
1717675309358,49.0000000000,32.0000000000,136.0000000000,467.0000000000,215.0000000000,14.0000000000
1717675309358,49.0000000000,31.0000000000,135.0000000000,463.0000000000,212.0000000000,13.0000000000
1717675309359,49.0000000000,31.0000000000,135.0000000000,460.0000000000,211.0000000000,14.0000000000
1717675309359,48.0000000000,56.0000000000,135.0000000000,455.0000000000,210.0000000000,12.0000000000
1717675309360,48.0000000000,55.0000000000,134.0000000000,451.0000000000,208.0000000000,12.0000000000
1717675309361,48.0000000000,54.0000000000,133.0000000000,448.0000000000,207.0000000000,13.0000000000
1717675309361,48.0000000000,54.0000000000,132.0000000000,444.0000000000,206.0000000000,12.0000000000
1717675309361,47.0000000000,53.0000000000,131.0000000000,440.0000000000,205.0000000000,13.0000000000
1717675309362,47.0000000000,53.0000000000,131.0000000000,435.0000000000,204.0000000000,12.0000000000
1717675309362,47.0000000000,52.0000000000,130.0000000000,433.0000000000,202.0000000000,12.0000000000
1717675309362,46.0000000000,52.0000000000,129.0000000000,429.0000000000,200.0000000000,12.0000000000
1717675309363,46.0000000000,52.0000000000,129.0000000000,425.0000000000,199.0000000000,12.0000000000
1717675309364,46.0000000000,51.0000000000,127.0000000000,422.0000000000,199.0000000000,12.0000000000
1717675309364,46.0000000000,113.0000000000,127.0000000000,419.0000000000,198.0000000000,12.0000000000
1717675309364,45.0000000000,252.0000000000,127.0000000000,415.0000000000,196.0000000000,12.0000000000
1717675309365,45.0000000000,327.0000000000,126.0000000000,412.0000000000,195.0000000000,12.0000000000
1717675309382,44.0000000000,323.0000000000,125.0000000000,492.0000000000,214.0000000000,12.0000000000
1717675309383,44.0000000000,319.0000000000,124.0000000000,486.0000000000,211.0000000000,12.0000000000
1717675309383,44.0000000000,316.0000000000,124.0000000000,481.0000000000,210.0000000000,12.0000000000
1717675309384,44.0000000000,313.0000000000,123.0000000000,476.0000000000,207.0000000000,12.0000000000
1717675309384,43.0000000000,311.0000000000,123.0000000000,472.0000000000,207.0000000000,11.0000000000
1717675309385,43.0000000000,307.0000000000,122.0000000000,467.0000000000,206.0000000000,11.0000000000
1717675309385,43.0000000000,305.0000000000,121.0000000000,463.0000000000,251.0000000000,11.0000000000
1717675309386,43.0000000000,304.0000000000,120.0000000000,459.0000000000,264.0000000000,12.0000000000
1717675309386,42.0000000000,301.0000000000,175.0000000000,454.0000000000,263.0000000000,11.0000000000
1717675309386,41.0000000000,299.0000000000,173.0000000000,450.0000000000,260.0000000000,11.0000000000
1717675309386,41.0000000000,295.0000000000,171.0000000000,446.0000000000,258.0000000000,11.0000000000
1717675309387,41.0000000000,294.0000000000,171.0000000000,441.0000000000,255.0000000000,11.0000000000
1717675309387,41.0000000000,292.0000000000,169.0000000000,439.0000000000,254.0000000000,11.0000000000
1717675309460,39.0000000000,290.0000000000,167.0000000000,435.0000000000,252.0000000000,11.0000000000
1717675309461,40.0000000000,287.0000000000,167.0000000000,431.0000000000,251.0000000000,12.0000000000
1717675309461,39.0000000000,286.0000000000,166.0000000000,428.0000000000,248.0000000000,11.0000000000
1717675309462,39.0000000000,284.0000000000,164.0000000000,423.0000000000,247.0000000000,11.0000000000
1717675309462,39.0000000000,281.0000000000,163.0000000000,419.0000000000,246.0000000000,11.0000000000
1717675309462,39.0000000000,280.0000000000,162.0000000000,416.0000000000,247.0000000000,11.0000000000
1717675309462,39.0000000000,278.0000000000,161.0000000000,413.0000000000,245.0000000000,11.0000000000
1717675309462,39.0000000000,276.0000000000,160.0000000000,409.0000000000,243.0000000000,11.0000000000
1717675309462,39.0000000000,274.0000000000,159.0000000000,406.0000000000,241.0000000000,11.0000000000
1717675309463,39.0000000000,271.0000000000,158.0000000000,403.0000000000,240.0000000000,11.0000000000
1717675309463,38.0000000000,270.0000000000,157.0000000000,399.0000000000,238.0000000000,11.0000000000
1717675309463,38.0000000000,268.0000000000,156.0000000000,396.0000000000,236.0000000000,11.0000000000
1717675309463,38.0000000000,267.0000000000,155.0000000000,392.0000000000,235.0000000000,11.0000000000
1717675309463,38.0000000000,265.0000000000,153.0000000000,391.0000000000,233.0000000000,10.0000000000
1717675309463,37.0000000000,263.0000000000,153.0000000000,387.0000000000,231.0000000000,10.0000000000
1717675309463,37.0000000000,262.0000000000,152.0000000000,384.0000000000,231.0000000000,10.0000000000
1717675309464,36.0000000000,260.0000000000,152.0000000000,382.0000000000,228.0000000000,10.0000000000
1717675309464,36.0000000000,258.0000000000,150.0000000000,378.0000000000,227.0000000000,10.0000000000
1717675309464,36.0000000000,255.0000000000,149.0000000000,376.0000000000,225.0000000000,10.0000000000
1717675309464,36.0000000000,255.0000000000,148.0000000000,372.0000000000,224.0000000000,9.0000000000
1717675309465,35.0000000000,253.0000000000,147.0000000000,369.0000000000,223.0000000000,9.0000000000
1717675309465,35.0000000000,252.0000000000,147.0000000000,367.0000000000,222.0000000000,9.0000000000
1717675309465,35.0000000000,250.0000000000,145.0000000000,365.0000000000,220.0000000000,9.0000000000
1717675309465,35.0000000000,248.0000000000,145.0000000000,363.0000000000,219.0000000000,9.0000000000
1717675309466,35.0000000000,247.0000000000,144.0000000000,359.0000000000,217.0000000000,9.0000000000
1717675309466,35.0000000000,246.0000000000,143.0000000000,358.0000000000,216.0000000000,9.0000000000
1717675309466,34.0000000000,244.0000000000,143.0000000000,355.0000000000,215.0000000000,9.0000000000
1717675309466,34.0000000000,243.0000000000,142.0000000000,353.0000000000,214.0000000000,9.0000000000
1717675309467,34.0000000000,241.0000000000,143.0000000000,351.0000000000,212.0000000000,9.0000000000
1717675309467,33.0000000000,239.0000000000,142.0000000000,348.0000000000,211.0000000000,9.0000000000
1717675309467,33.0000000000,238.0000000000,140.0000000000,347.0000000000,209.0000000000,9.0000000000
1717675309468,33.0000000000,237.0000000000,140.0000000000,344.0000000000,207.0000000000,9.0000000000
1717675309468,37.0000000000,235.0000000000,139.0000000000,342.0000000000,207.0000000000,9.0000000000
1717675309469,36.0000000000,233.0000000000,138.0000000000,339.0000000000,206.0000000000,9.0000000000
1717675309469,36.0000000000,231.0000000000,137.0000000000,338.0000000000,204.0000000000,9.0000000000
1717675309469,35.0000000000,231.0000000000,135.0000000000,335.0000000000,204.0000000000,9.0000000000
1717675309469,35.0000000000,230.0000000000,135.0000000000,334.0000000000,202.0000000000,8.0000000000
1717675309469,35.0000000000,228.0000000000,135.0000000000,332.0000000000,204.0000000000,9.0000000000
1717675309469,35.0000000000,227.0000000000,135.0000000000,329.0000000000,203.0000000000,9.0000000000
1717675309470,35.0000000000,226.0000000000,134.0000000000,327.0000000000,201.0000000000,9.0000000000
1717675309470,35.0000000000,224.0000000000,132.0000000000,326.0000000000,200.0000000000,9.0000000000
1717675309470,35.0000000000,223.0000000000,131.0000000000,323.0000000000,231.0000000000,23.0000000000
1717675309470,35.0000000000,222.0000000000,131.0000000000,321.0000000000,231.0000000000,22.0000000000
1717675309498,34.0000000000,220.0000000000,130.0000000000,319.0000000000,228.0000000000,22.0000000000
1717675309499,34.0000000000,219.0000000000,129.0000000000,317.0000000000,227.0000000000,22.0000000000
1717675309500,34.0000000000,217.0000000000,129.0000000000,316.0000000000,225.0000000000,22.0000000000
1717675309500,33.0000000000,246.0000000000,127.0000000000,378.0000000000,224.0000000000,21.0000000000
1717675309500,33.0000000000,274.0000000000,127.0000000000,426.0000000000,222.0000000000,21.0000000000
1717675309501,33.0000000000,271.0000000000,126.0000000000,422.0000000000,220.0000000000,21.0000000000
1717675309501,32.0000000000,269.0000000000,126.0000000000,417.0000000000,219.0000000000,20.0000000000
1717675309501,33.0000000000,267.0000000000,125.0000000000,414.0000000000,217.0000000000,20.0000000000
1717675309502,32.0000000000,265.0000000000,124.0000000000,410.0000000000,216.0000000000,20.0000000000
1717675309502,31.0000000000,263.0000000000,123.0000000000,406.0000000000,215.0000000000,20.0000000000
1717675309502,31.0000000000,261.0000000000,123.0000000000,403.0000000000,213.0000000000,19.0000000000
1717675309502,31.0000000000,259.0000000000,122.0000000000,399.0000000000,211.0000000000,20.0000000000
1717675309502,31.0000000000,257.0000000000,121.0000000000,543.0000000000,210.0000000000,19.0000000000
1717675309502,31.0000000000,255.0000000000,120.0000000000,536.0000000000,209.0000000000,19.0000000000
1717675309503,31.0000000000,254.0000000000,120.0000000000,529.0000000000,207.0000000000,19.0000000000
1717675309503,31.0000000000,252.0000000000,120.0000000000,524.0000000000,206.0000000000,19.0000000000
1717675309503,31.0000000000,250.0000000000,119.0000000000,518.0000000000,204.0000000000,19.0000000000
1717675309529,30.0000000000,248.0000000000,118.0000000000,514.0000000000,204.0000000000,19.0000000000
1717675309530,30.0000000000,247.0000000000,117.0000000000,509.0000000000,201.0000000000,19.0000000000
1717675309531,30.0000000000,246.0000000000,116.0000000000,504.0000000000,199.0000000000,19.0000000000
1717675309531,35.0000000000,243.0000000000,115.0000000000,499.0000000000,199.0000000000,19.0000000000
1717675309531,36.0000000000,242.0000000000,115.0000000000,495.0000000000,198.0000000000,19.0000000000
1717675309531,35.0000000000,240.0000000000,115.0000000000,489.0000000000,197.0000000000,18.0000000000
1717675309531,35.0000000000,239.0000000000,114.0000000000,485.0000000000,196.0000000000,18.0000000000
1717675309532,35.0000000000,237.0000000000,113.0000000000,480.0000000000,195.0000000000,18.0000000000
1717675309532,35.0000000000,236.0000000000,113.0000000000,476.0000000000,193.0000000000,18.0000000000
1717675309532,35.0000000000,234.0000000000,112.0000000000,472.0000000000,192.0000000000,17.0000000000
1717675309532,34.0000000000,231.0000000000,112.0000000000,467.0000000000,191.0000000000,17.0000000000
1717675309533,34.0000000000,231.0000000000,111.0000000000,463.0000000000,190.0000000000,17.0000000000
1717675309533,33.0000000000,229.0000000000,111.0000000000,460.0000000000,189.0000000000,17.0000000000
1717675309533,38.0000000000,227.0000000000,110.0000000000,455.0000000000,188.0000000000,17.0000000000
1717675309534,38.0000000000,226.0000000000,109.0000000000,452.0000000000,187.0000000000,17.0000000000
1717675309534,37.0000000000,225.0000000000,108.0000000000,448.0000000000,185.0000000000,17.0000000000
1717675309562,37.0000000000,223.0000000000,108.0000000000,444.0000000000,184.0000000000,17.0000000000
1717675309563,36.0000000000,222.0000000000,107.0000000000,440.0000000000,184.0000000000,17.0000000000
1717675309563,36.0000000000,220.0000000000,107.0000000000,502.0000000000,239.0000000000,17.0000000000
1717675309563,36.0000000000,219.0000000000,106.0000000000,563.0000000000,275.0000000000,16.0000000000
1717675309564,35.0000000000,217.0000000000,105.0000000000,556.0000000000,273.0000000000,16.0000000000
1717675309564,35.0000000000,216.0000000000,105.0000000000,551.0000000000,271.0000000000,16.0000000000
1717675309564,35.0000000000,216.0000000000,103.0000000000,543.0000000000,269.0000000000,15.0000000000
1717675309565,35.0000000000,214.0000000000,103.0000000000,539.0000000000,268.0000000000,15.0000000000
1717675309565,35.0000000000,212.0000000000,103.0000000000,534.0000000000,265.0000000000,16.0000000000
1717675309565,34.0000000000,211.0000000000,103.0000000000,527.0000000000,263.0000000000,15.0000000000
1717675309565,34.0000000000,209.0000000000,102.0000000000,523.0000000000,262.0000000000,15.0000000000
1717675309566,34.0000000000,207.0000000000,102.0000000000,518.0000000000,259.0000000000,15.0000000000
1717675309566,34.0000000000,207.0000000000,101.0000000000,514.0000000000,258.0000000000,15.0000000000
1717675309566,33.0000000000,206.0000000000,100.0000000000,509.0000000000,255.0000000000,15.0000000000
1717675309567,33.0000000000,205.0000000000,100.0000000000,504.0000000000,254.0000000000,15.0000000000
1717675309567,33.0000000000,204.0000000000,99.0000000000,499.0000000000,252.0000000000,15.0000000000
1717675309567,32.0000000000,203.0000000000,99.0000000000,494.0000000000,251.0000000000,15.0000000000
1717675309610,32.0000000000,201.0000000000,99.0000000000,490.0000000000,249.0000000000,15.0000000000
1717675309611,32.0000000000,199.0000000000,98.0000000000,487.0000000000,248.0000000000,15.0000000000
1717675309611,32.0000000000,199.0000000000,97.0000000000,482.0000000000,246.0000000000,15.0000000000
1717675309611,31.0000000000,198.0000000000,97.0000000000,478.0000000000,244.0000000000,14.0000000000
1717675309611,31.0000000000,196.0000000000,96.0000000000,473.0000000000,243.0000000000,14.0000000000
1717675309612,31.0000000000,195.0000000000,96.0000000000,471.0000000000,241.0000000000,14.0000000000
1717675309612,31.0000000000,195.0000000000,96.0000000000,467.0000000000,240.0000000000,14.0000000000
1717675309612,31.0000000000,193.0000000000,169.0000000000,463.0000000000,238.0000000000,14.0000000000
1717675309612,31.0000000000,192.0000000000,167.0000000000,459.0000000000,236.0000000000,14.0000000000
1717675309612,31.0000000000,192.0000000000,166.0000000000,454.0000000000,235.0000000000,14.0000000000
1717675309612,30.0000000000,190.0000000000,164.0000000000,450.0000000000,233.0000000000,14.0000000000
1717675309612,30.0000000000,189.0000000000,163.0000000000,447.0000000000,231.0000000000,14.0000000000
1717675309613,35.0000000000,188.0000000000,162.0000000000,502.0000000000,231.0000000000,14.0000000000
1717675309613,35.0000000000,187.0000000000,160.0000000000,496.0000000000,229.0000000000,14.0000000000
1717675309613,35.0000000000,185.0000000000,159.0000000000,491.0000000000,227.0000000000,13.0000000000
1717675309613,35.0000000000,184.0000000000,159.0000000000,487.0000000000,226.0000000000,13.0000000000
1717675309613,35.0000000000,184.0000000000,158.0000000000,483.0000000000,225.0000000000,13.0000000000
1717675309613,35.0000000000,183.0000000000,164.0000000000,478.0000000000,224.0000000000,13.0000000000
1717675309613,34.0000000000,182.0000000000,163.0000000000,473.0000000000,222.0000000000,13.0000000000
1717675309614,34.0000000000,180.0000000000,162.0000000000,469.0000000000,220.0000000000,12.0000000000
1717675309614,33.0000000000,179.0000000000,161.0000000000,464.0000000000,219.0000000000,13.0000000000
1717675309614,33.0000000000,179.0000000000,159.0000000000,460.0000000000,217.0000000000,12.0000000000
1717675309614,33.0000000000,177.0000000000,159.0000000000,455.0000000000,216.0000000000,12.0000000000
1717675309632,33.0000000000,176.0000000000,158.0000000000,451.0000000000,215.0000000000,12.0000000000
1717675309633,33.0000000000,176.0000000000,157.0000000000,448.0000000000,214.0000000000,12.0000000000
1717675309633,31.0000000000,175.0000000000,156.0000000000,444.0000000000,212.0000000000,12.0000000000
1717675309633,32.0000000000,174.0000000000,155.0000000000,440.0000000000,231.0000000000,12.0000000000
1717675309633,31.0000000000,172.0000000000,153.0000000000,436.0000000000,230.0000000000,12.0000000000
1717675309634,31.0000000000,172.0000000000,152.0000000000,483.0000000000,227.0000000000,12.0000000000
1717675309634,31.0000000000,171.0000000000,152.0000000000,477.0000000000,226.0000000000,12.0000000000
1717675309634,31.0000000000,169.0000000000,151.0000000000,473.0000000000,224.0000000000,12.0000000000
1717675309635,31.0000000000,167.0000000000,150.0000000000,469.0000000000,223.0000000000,12.0000000000
1717675309636,31.0000000000,167.0000000000,149.0000000000,464.0000000000,222.0000000000,17.0000000000
1717675309636,33.0000000000,167.0000000000,148.0000000000,460.0000000000,220.0000000000,17.0000000000
1717675309636,33.0000000000,166.0000000000,147.0000000000,455.0000000000,219.0000000000,17.0000000000
1717675309636,33.0000000000,165.0000000000,146.0000000000,452.0000000000,273.0000000000,17.0000000000
1717675309654,33.0000000000,163.0000000000,145.0000000000,448.0000000000,270.0000000000,17.0000000000
1717675309655,32.0000000000,163.0000000000,144.0000000000,443.0000000000,268.0000000000,16.0000000000
1717675309655,32.0000000000,162.0000000000,143.0000000000,440.0000000000,265.0000000000,16.0000000000
1717675309656,31.0000000000,161.0000000000,143.0000000000,435.0000000000,263.0000000000,17.0000000000
1717675309656,31.0000000000,159.0000000000,142.0000000000,432.0000000000,262.0000000000,16.0000000000
1717675309656,31.0000000000,159.0000000000,140.0000000000,428.0000000000,259.0000000000,16.0000000000
1717675309656,31.0000000000,158.0000000000,140.0000000000,424.0000000000,258.0000000000,16.0000000000
1717675309657,31.0000000000,158.0000000000,139.0000000000,457.0000000000,255.0000000000,16.0000000000
1717675309657,31.0000000000,156.0000000000,138.0000000000,477.0000000000,254.0000000000,15.0000000000
1717675309657,31.0000000000,156.0000000000,137.0000000000,472.0000000000,252.0000000000,16.0000000000
1717675309675,31.0000000000,155.0000000000,135.0000000000,467.0000000000,251.0000000000,15.0000000000
1717675309675,30.0000000000,155.0000000000,135.0000000000,463.0000000000,249.0000000000,15.0000000000
1717675309676,30.0000000000,153.0000000000,135.0000000000,459.0000000000,248.0000000000,15.0000000000
1717675309676,30.0000000000,152.0000000000,134.0000000000,454.0000000000,246.0000000000,15.0000000000
1717675309676,30.0000000000,152.0000000000,133.0000000000,450.0000000000,243.0000000000,15.0000000000
1717675309676,30.0000000000,151.0000000000,132.0000000000,446.0000000000,243.0000000000,15.0000000000
1717675309677,29.0000000000,150.0000000000,131.0000000000,479.0000000000,241.0000000000,15.0000000000
1717675309677,29.0000000000,150.0000000000,131.0000000000,473.0000000000,239.0000000000,15.0000000000
1717675309677,29.0000000000,148.0000000000,130.0000000000,468.0000000000,238.0000000000,15.0000000000
1717675309677,29.0000000000,147.0000000000,129.0000000000,464.0000000000,236.0000000000,14.0000000000
1717675309677,28.0000000000,147.0000000000,127.0000000000,460.0000000000,235.0000000000,15.0000000000
1717675309701,28.0000000000,146.0000000000,127.0000000000,455.0000000000,232.0000000000,14.0000000000
1717675309702,28.0000000000,145.0000000000,134.0000000000,452.0000000000,231.0000000000,14.0000000000
1717675309702,28.0000000000,144.0000000000,236.0000000000,448.0000000000,230.0000000000,14.0000000000
1717675309703,28.0000000000,143.0000000000,233.0000000000,559.0000000000,228.0000000000,14.0000000000
1717675309703,28.0000000000,143.0000000000,231.0000000000,568.0000000000,227.0000000000,14.0000000000
1717675309703,27.0000000000,142.0000000000,229.0000000000,562.0000000000,225.0000000000,14.0000000000
1717675309703,27.0000000000,141.0000000000,227.0000000000,556.0000000000,224.0000000000,14.0000000000
1717675309703,27.0000000000,140.0000000000,226.0000000000,550.0000000000,222.0000000000,14.0000000000
1717675309703,27.0000000000,140.0000000000,224.0000000000,543.0000000000,221.0000000000,14.0000000000
1717675309704,27.0000000000,139.0000000000,224.0000000000,539.0000000000,220.0000000000,14.0000000000
1717675309704,27.0000000000,138.0000000000,222.0000000000,534.0000000000,218.0000000000,13.0000000000
1717675309704,26.0000000000,137.0000000000,220.0000000000,527.0000000000,217.0000000000,13.0000000000
1717675309704,26.0000000000,136.0000000000,219.0000000000,523.0000000000,216.0000000000,13.0000000000
1717675309720,25.0000000000,135.0000000000,216.0000000000,518.0000000000,214.0000000000,13.0000000000
1717675309720,26.0000000000,135.0000000000,216.0000000000,512.0000000000,212.0000000000,13.0000000000
1717675309721,25.0000000000,135.0000000000,214.0000000000,508.0000000000,211.0000000000,13.0000000000
1717675309721,25.0000000000,134.0000000000,212.0000000000,504.0000000000,210.0000000000,13.0000000000
1717675309721,28.0000000000,133.0000000000,211.0000000000,499.0000000000,208.0000000000,13.0000000000
1717675309721,28.0000000000,132.0000000000,209.0000000000,560.0000000000,207.0000000000,12.0000000000
1717675309722,27.0000000000,131.0000000000,208.0000000000,553.0000000000,206.0000000000,12.0000000000
1717675309722,27.0000000000,131.0000000000,207.0000000000,547.0000000000,204.0000000000,12.0000000000
1717675309722,27.0000000000,130.0000000000,206.0000000000,541.0000000000,204.0000000000,12.0000000000
1717675309723,27.0000000000,129.0000000000,204.0000000000,536.0000000000,203.0000000000,12.0000000000
1717675309738,26.0000000000,129.0000000000,203.0000000000,529.0000000000,201.0000000000,12.0000000000
1717675309738,27.0000000000,127.0000000000,202.0000000000,525.0000000000,199.0000000000,12.0000000000
1717675309739,26.0000000000,127.0000000000,200.0000000000,519.0000000000,199.0000000000,12.0000000000
1717675309739,28.0000000000,127.0000000000,199.0000000000,515.0000000000,198.0000000000,12.0000000000
1717675309739,28.0000000000,126.0000000000,198.0000000000,614.0000000000,196.0000000000,12.0000000000
1717675309739,28.0000000000,125.0000000000,196.0000000000,647.0000000000,195.0000000000,12.0000000000
1717675309739,28.0000000000,124.0000000000,195.0000000000,639.0000000000,194.0000000000,12.0000000000
1717675309739,27.0000000000,124.0000000000,195.0000000000,633.0000000000,193.0000000000,12.0000000000
1717675309756,28.0000000000,124.0000000000,193.0000000000,625.0000000000,192.0000000000,12.0000000000
1717675309756,27.0000000000,123.0000000000,192.0000000000,619.0000000000,190.0000000000,12.0000000000
1717675309757,27.0000000000,122.0000000000,191.0000000000,611.0000000000,189.0000000000,12.0000000000
1717675309757,27.0000000000,121.0000000000,190.0000000000,605.0000000000,188.0000000000,12.0000000000
1717675309757,27.0000000000,120.0000000000,188.0000000000,599.0000000000,187.0000000000,12.0000000000
1717675309757,26.0000000000,120.0000000000,187.0000000000,591.0000000000,185.0000000000,12.0000000000
1717675309757,25.0000000000,119.0000000000,187.0000000000,586.0000000000,184.0000000000,11.0000000000
1717675309757,26.0000000000,119.0000000000,185.0000000000,579.0000000000,184.0000000000,11.0000000000
1717675309757,25.0000000000,118.0000000000,184.0000000000,574.0000000000,183.0000000000,11.0000000000
1717675309772,25.0000000000,118.0000000000,183.0000000000,568.0000000000,182.0000000000,11.0000000000
1717675309773,25.0000000000,116.0000000000,182.0000000000,563.0000000000,180.0000000000,11.0000000000
1717675309773,24.0000000000,116.0000000000,180.0000000000,558.0000000000,179.0000000000,11.0000000000
1717675309773,25.0000000000,115.0000000000,179.0000000000,551.0000000000,179.0000000000,11.0000000000
