timestamp,Channel 1,Channel 2,Channel 3,Channel 4,Channel 5,Channel 6
1717675297524,7.0000000000,0.0000000000,0.0000000000,37.0000000000,23.0000000000,4.0000000000
1717675297525,7.0000000000,0.0000000000,0.0000000000,37.0000000000,23.0000000000,4.0000000000
1717675297525,7.0000000000,0.0000000000,0.0000000000,36.0000000000,23.0000000000,4.0000000000
1717675297525,6.0000000000,0.0000000000,0.0000000000,36.0000000000,23.0000000000,4.0000000000
1717675297525,6.0000000000,0.0000000000,0.0000000000,36.0000000000,23.0000000000,4.0000000000
1717675297525,7.0000000000,0.0000000000,0.0000000000,36.0000000000,23.0000000000,4.0000000000
1717675297525,6.0000000000,0.0000000000,0.0000000000,35.0000000000,22.0000000000,4.0000000000
1717675297525,7.0000000000,0.0000000000,0.0000000000,35.0000000000,22.0000000000,4.0000000000
1717675297525,6.0000000000,0.0000000000,0.0000000000,35.0000000000,22.0000000000,4.0000000000
1717675297526,6.0000000000,0.0000000000,0.0000000000,35.0000000000,22.0000000000,4.0000000000
1717675297526,6.0000000000,0.0000000000,0.0000000000,35.0000000000,22.0000000000,4.0000000000
1717675297526,7.0000000000,0.0000000000,0.0000000000,35.0000000000,22.0000000000,4.0000000000
1717675297526,6.0000000000,0.0000000000,0.0000000000,35.0000000000,22.0000000000,4.0000000000
1717675297538,7.0000000000,0.0000000000,0.0000000000,35.0000000000,22.0000000000,3.0000000000
1717675297539,7.0000000000,0.0000000000,0.0000000000,35.0000000000,22.0000000000,4.0000000000
1717675297539,6.0000000000,0.0000000000,0.0000000000,35.0000000000,22.0000000000,4.0000000000
1717675297539,6.0000000000,0.0000000000,0.0000000000,34.0000000000,21.0000000000,4.0000000000
1717675297540,6.0000000000,0.0000000000,0.0000000000,34.0000000000,21.0000000000,3.0000000000
1717675297540,6.0000000000,0.0000000000,0.0000000000,34.0000000000,21.0000000000,3.0000000000
1717675297540,6.0000000000,0.0000000000,0.0000000000,34.0000000000,21.0000000000,4.0000000000
1717675297540,6.0000000000,0.0000000000,0.0000000000,34.0000000000,21.0000000000,3.0000000000
1717675297540,6.0000000000,0.0000000000,0.0000000000,33.0000000000,21.0000000000,3.0000000000
1717675297540,6.0000000000,0.0000000000,0.0000000000,33.0000000000,20.0000000000,4.0000000000
1717675297540,6.0000000000,0.0000000000,0.0000000000,33.0000000000,20.0000000000,3.0000000000
1717675297540,6.0000000000,0.0000000000,0.0000000000,33.0000000000,20.0000000000,4.0000000000
1717675297540,6.0000000000,0.0000000000,0.0000000000,33.0000000000,20.0000000000,3.0000000000
1717675297553,6.0000000000,0.0000000000,0.0000000000,33.0000000000,20.0000000000,3.0000000000
1717675297553,6.0000000000,0.0000000000,0.0000000000,32.0000000000,20.0000000000,3.0000000000
1717675297553,6.0000000000,0.0000000000,0.0000000000,32.0000000000,20.0000000000,3.0000000000
1717675297553,6.0000000000,0.0000000000,0.0000000000,32.0000000000,20.0000000000,3.0000000000
1717675297553,6.0000000000,0.0000000000,0.0000000000,32.0000000000,20.0000000000,3.0000000000
1717675297554,6.0000000000,0.0000000000,0.0000000000,31.0000000000,20.0000000000,3.0000000000
1717675297554,6.0000000000,0.0000000000,0.0000000000,31.0000000000,19.0000000000,3.0000000000
1717675297554,6.0000000000,0.0000000000,0.0000000000,31.0000000000,20.0000000000,3.0000000000
1717675297554,6.0000000000,0.0000000000,0.0000000000,31.0000000000,19.0000000000,3.0000000000
1717675297573,6.0000000000,0.0000000000,0.0000000000,31.0000000000,19.0000000000,3.0000000000
1717675297574,6.0000000000,0.0000000000,0.0000000000,31.0000000000,19.0000000000,3.0000000000
1717675297574,6.0000000000,0.0000000000,0.0000000000,31.0000000000,19.0000000000,3.0000000000
1717675297574,6.0000000000,0.0000000000,0.0000000000,31.0000000000,19.0000000000,3.0000000000
1717675297574,6.0000000000,0.0000000000,0.0000000000,31.0000000000,19.0000000000,3.0000000000
1717675297574,6.0000000000,0.0000000000,0.0000000000,31.0000000000,19.0000000000,3.0000000000
1717675297574,6.0000000000,0.0000000000,0.0000000000,31.0000000000,19.0000000000,3.0000000000
1717675297574,6.0000000000,0.0000000000,0.0000000000,31.0000000000,19.0000000000,3.0000000000
1717675297574,6.0000000000,0.0000000000,0.0000000000,30.0000000000,19.0000000000,3.0000000000
1717675297575,6.0000000000,0.0000000000,0.0000000000,30.0000000000,19.0000000000,3.0000000000
1717675297575,6.0000000000,0.0000000000,0.0000000000,30.0000000000,19.0000000000,3.0000000000
1717675297575,6.0000000000,0.0000000000,0.0000000000,30.0000000000,19.0000000000,3.0000000000
1717675297575,6.0000000000,0.0000000000,0.0000000000,30.0000000000,19.0000000000,3.0000000000
1717675297575,6.0000000000,0.0000000000,0.0000000000,30.0000000000,19.0000000000,3.0000000000
1717675297575,6.0000000000,0.0000000000,0.0000000000,30.0000000000,24.0000000000,3.0000000000
1717675297575,6.0000000000,0.0000000000,0.0000000000,30.0000000000,24.0000000000,3.0000000000
1717675297589,6.0000000000,0.0000000000,0.0000000000,29.0000000000,25.0000000000,3.0000000000
1717675297589,6.0000000000,0.0000000000,0.0000000000,29.0000000000,25.0000000000,3.0000000000
1717675297589,6.0000000000,0.0000000000,0.0000000000,30.0000000000,25.0000000000,3.0000000000
1717675297589,5.0000000000,0.0000000000,0.0000000000,28.0000000000,24.0000000000,3.0000000000
1717675297589,6.0000000000,0.0000000000,0.0000000000,29.0000000000,24.0000000000,3.0000000000
1717675297589,6.0000000000,0.0000000000,0.0000000000,28.0000000000,24.0000000000,3.0000000000
1717675297590,6.0000000000,0.0000000000,0.0000000000,28.0000000000,24.0000000000,3.0000000000
1717675297590,6.0000000000,0.0000000000,0.0000000000,28.0000000000,24.0000000000,3.0000000000
1717675297590,6.0000000000,0.0000000000,0.0000000000,28.0000000000,24.0000000000,3.0000000000
1717675297590,6.0000000000,0.0000000000,0.0000000000,28.0000000000,24.0000000000,3.0000000000
1717675297590,6.0000000000,0.0000000000,0.0000000000,28.0000000000,24.0000000000,3.0000000000
1717675297590,6.0000000000,0.0000000000,0.0000000000,28.0000000000,24.0000000000,3.0000000000
1717675297590,6.0000000000,0.0000000000,0.0000000000,28.0000000000,24.0000000000,3.0000000000
1717675297604,6.0000000000,0.0000000000,0.0000000000,28.0000000000,23.0000000000,3.0000000000
1717675297606,6.0000000000,0.0000000000,0.0000000000,28.0000000000,24.0000000000,3.0000000000
1717675297606,6.0000000000,0.0000000000,0.0000000000,28.0000000000,24.0000000000,3.0000000000
1717675297606,6.0000000000,0.0000000000,0.0000000000,28.0000000000,23.0000000000,3.0000000000
1717675297606,6.0000000000,0.0000000000,0.0000000000,27.0000000000,24.0000000000,3.0000000000
1717675297606,6.0000000000,0.0000000000,0.0000000000,27.0000000000,24.0000000000,3.0000000000
1717675297606,5.0000000000,0.0000000000,0.0000000000,27.0000000000,23.0000000000,3.0000000000
1717675297606,6.0000000000,0.0000000000,0.0000000000,27.0000000000,23.0000000000,3.0000000000
1717675297606,6.0000000000,0.0000000000,0.0000000000,27.0000000000,23.0000000000,3.0000000000
1717675297606,5.0000000000,0.0000000000,0.0000000000,27.0000000000,23.0000000000,3.0000000000
1717675297607,5.0000000000,0.0000000000,0.0000000000,27.0000000000,23.0000000000,3.0000000000
1717675297607,5.0000000000,0.0000000000,0.0000000000,26.0000000000,23.0000000000,3.0000000000
1717675297607,5.0000000000,0.0000000000,0.0000000000,27.0000000000,23.0000000000,3.0000000000
1717675297619,5.0000000000,0.0000000000,0.0000000000,26.0000000000,23.0000000000,3.0000000000
1717675297619,5.0000000000,0.0000000000,0.0000000000,26.0000000000,22.0000000000,3.0000000000
1717675297620,5.0000000000,0.0000000000,0.0000000000,26.0000000000,23.0000000000,3.0000000000
1717675297620,5.0000000000,0.0000000000,0.0000000000,25.0000000000,22.0000000000,3.0000000000
1717675297620,5.0000000000,0.0000000000,0.0000000000,25.0000000000,22.0000000000,3.0000000000
1717675297620,5.0000000000,0.0000000000,0.0000000000,25.0000000000,22.0000000000,3.0000000000
1717675297620,5.0000000000,0.0000000000,0.0000000000,25.0000000000,22.0000000000,3.0000000000
1717675297620,5.0000000000,0.0000000000,0.0000000000,25.0000000000,22.0000000000,3.0000000000
1717675297620,4.0000000000,0.0000000000,0.0000000000,25.0000000000,22.0000000000,3.0000000000
1717675297620,5.0000000000,0.0000000000,0.0000000000,25.0000000000,22.0000000000,3.0000000000
1717675297634,4.0000000000,0.0000000000,0.0000000000,25.0000000000,22.0000000000,3.0000000000
1717675297635,5.0000000000,0.0000000000,0.0000000000,25.0000000000,22.0000000000,3.0000000000
1717675297635,6.0000000000,0.0000000000,0.0000000000,25.0000000000,21.0000000000,3.0000000000
1717675297635,6.0000000000,0.0000000000,0.0000000000,24.0000000000,21.0000000000,3.0000000000
1717675297635,5.0000000000,0.0000000000,0.0000000000,24.0000000000,20.0000000000,3.0000000000
1717675297635,5.0000000000,0.0000000000,0.0000000000,24.0000000000,20.0000000000,3.0000000000
1717675297635,6.0000000000,0.0000000000,0.0000000000,24.0000000000,20.0000000000,2.0000000000
1717675297635,6.0000000000,0.0000000000,0.0000000000,24.0000000000,20.0000000000,2.0000000000
1717675297636,5.0000000000,0.0000000000,0.0000000000,24.0000000000,20.0000000000,3.0000000000
1717675297636,5.0000000000,0.0000000000,0.0000000000,24.0000000000,20.0000000000,3.0000000000
1717675297636,5.0000000000,0.0000000000,0.0000000000,24.0000000000,20.0000000000,3.0000000000
1717675297637,5.0000000000,0.0000000000,0.0000000000,24.0000000000,20.0000000000,2.0000000000
1717675297639,5.0000000000,0.0000000000,0.0000000000,24.0000000000,20.0000000000,2.0000000000
1717675297639,5.0000000000,0.0000000000,0.0000000000,24.0000000000,20.0000000000,2.0000000000
1717675297639,5.0000000000,0.0000000000,0.0000000000,24.0000000000,19.0000000000,3.0000000000
1717675297639,5.0000000000,0.0000000000,0.0000000000,24.0000000000,19.0000000000,2.0000000000
1717675297667,5.0000000000,0.0000000000,0.0000000000,24.0000000000,19.0000000000,2.0000000000
1717675297667,5.0000000000,0.0000000000,0.0000000000,24.0000000000,19.0000000000,2.0000000000
1717675297667,5.0000000000,0.0000000000,0.0000000000,24.0000000000,19.0000000000,2.0000000000
1717675297667,5.0000000000,0.0000000000,0.0000000000,23.0000000000,19.0000000000,2.0000000000
1717675297667,5.0000000000,0.0000000000,0.0000000000,23.0000000000,19.0000000000,2.0000000000
1717675297667,5.0000000000,0.0000000000,0.0000000000,23.0000000000,19.0000000000,2.0000000000
1717675297668,5.0000000000,0.0000000000,0.0000000000,23.0000000000,19.0000000000,2.0000000000
1717675297668,5.0000000000,0.0000000000,0.0000000000,23.0000000000,19.0000000000,2.0000000000
1717675297668,5.0000000000,0.0000000000,0.0000000000,23.0000000000,19.0000000000,2.0000000000
1717675297668,4.0000000000,0.0000000000,0.0000000000,22.0000000000,19.0000000000,2.0000000000
1717675297668,4.0000000000,0.0000000000,0.0000000000,22.0000000000,19.0000000000,2.0000000000
1717675297668,5.0000000000,0.0000000000,0.0000000000,22.0000000000,19.0000000000,2.0000000000
1717675297668,5.0000000000,0.0000000000,0.0000000000,22.0000000000,19.0000000000,2.0000000000
1717675297669,4.0000000000,0.0000000000,0.0000000000,22.0000000000,19.0000000000,2.0000000000
1717675297669,4.0000000000,0.0000000000,0.0000000000,22.0000000000,19.0000000000,2.0000000000
1717675297669,5.0000000000,0.0000000000,0.0000000000,22.0000000000,19.0000000000,2.0000000000
1717675297669,4.0000000000,0.0000000000,0.0000000000,22.0000000000,19.0000000000,2.0000000000
1717675297669,5.0000000000,0.0000000000,0.0000000000,22.0000000000,18.0000000000,2.0000000000
1717675297669,5.0000000000,0.0000000000,0.0000000000,22.0000000000,18.0000000000,2.0000000000
1717675297669,5.0000000000,0.0000000000,0.0000000000,22.0000000000,18.0000000000,2.0000000000
1717675297669,5.0000000000,0.0000000000,0.0000000000,22.0000000000,18.0000000000,2.0000000000
1717675297670,5.0000000000,0.0000000000,0.0000000000,21.0000000000,18.0000000000,2.0000000000
1717675297682,5.0000000000,0.0000000000,0.0000000000,21.0000000000,18.0000000000,2.0000000000
1717675297682,5.0000000000,0.0000000000,0.0000000000,21.0000000000,18.0000000000,2.0000000000
1717675297682,4.0000000000,0.0000000000,0.0000000000,21.0000000000,18.0000000000,2.0000000000
1717675297683,4.0000000000,0.0000000000,0.0000000000,21.0000000000,17.0000000000,2.0000000000
1717675297683,4.0000000000,0.0000000000,0.0000000000,20.0000000000,17.0000000000,2.0000000000
1717675297683,4.0000000000,0.0000000000,0.0000000000,20.0000000000,17.0000000000,2.0000000000
1717675297683,5.0000000000,0.0000000000,0.0000000000,20.0000000000,17.0000000000,1.0000000000
1717675297683,4.0000000000,0.0000000000,0.0000000000,20.0000000000,17.0000000000,2.0000000000
1717675297683,4.0000000000,0.0000000000,0.0000000000,20.0000000000,17.0000000000,2.0000000000
1717675297683,4.0000000000,0.0000000000,0.0000000000,27.0000000000,17.0000000000,1.0000000000
1717675297683,4.0000000000,0.0000000000,0.0000000000,27.0000000000,17.0000000000,2.0000000000
1717675297683,5.0000000000,0.0000000000,0.0000000000,26.0000000000,17.0000000000,2.0000000000
1717675297683,5.0000000000,0.0000000000,0.0000000000,26.0000000000,17.0000000000,1.0000000000
1717675297699,5.0000000000,0.0000000000,0.0000000000,35.0000000000,17.0000000000,1.0000000000
1717675297699,5.0000000000,0.0000000000,0.0000000000,35.0000000000,16.0000000000,1.0000000000
1717675297700,5.0000000000,0.0000000000,0.0000000000,35.0000000000,17.0000000000,1.0000000000
1717675297700,5.0000000000,0.0000000000,0.0000000000,35.0000000000,16.0000000000,2.0000000000
1717675297700,5.0000000000,0.0000000000,0.0000000000,35.0000000000,16.0000000000,1.0000000000
1717675297700,5.0000000000,0.0000000000,0.0000000000,35.0000000000,16.0000000000,1.0000000000
1717675297701,4.0000000000,0.0000000000,0.0000000000,34.0000000000,16.0000000000,1.0000000000
1717675297701,4.0000000000,0.0000000000,0.0000000000,33.0000000000,16.0000000000,1.0000000000
1717675297701,5.0000000000,0.0000000000,0.0000000000,34.0000000000,16.0000000000,1.0000000000
1717675297701,5.0000000000,0.0000000000,0.0000000000,33.0000000000,16.0000000000,1.0000000000
1717675297701,5.0000000000,0.0000000000,0.0000000000,33.0000000000,15.0000000000,1.0000000000
1717675297701,4.0000000000,0.0000000000,0.0000000000,33.0000000000,15.0000000000,1.0000000000
1717675297702,4.0000000000,0.0000000000,0.0000000000,33.0000000000,15.0000000000,1.0000000000
1717675297744,4.0000000000,0.0000000000,0.0000000000,33.0000000000,15.0000000000,1.0000000000
1717675297745,5.0000000000,0.0000000000,0.0000000000,33.0000000000,15.0000000000,1.0000000000
1717675297745,5.0000000000,0.0000000000,0.0000000000,33.0000000000,15.0000000000,1.0000000000
1717675297745,5.0000000000,0.0000000000,0.0000000000,32.0000000000,15.0000000000,1.0000000000
1717675297745,4.0000000000,0.0000000000,0.0000000000,31.0000000000,15.0000000000,1.0000000000
1717675297745,4.0000000000,0.0000000000,0.0000000000,32.0000000000,15.0000000000,1.0000000000
1717675297745,4.0000000000,0.0000000000,0.0000000000,31.0000000000,15.0000000000,1.0000000000
1717675297746,4.0000000000,0.0000000000,0.0000000000,31.0000000000,15.0000000000,1.0000000000
1717675297746,4.0000000000,0.0000000000,0.0000000000,31.0000000000,15.0000000000,1.0000000000
1717675297746,4.0000000000,0.0000000000,0.0000000000,31.0000000000,15.0000000000,1.0000000000
1717675297746,4.0000000000,0.0000000000,0.0000000000,31.0000000000,15.0000000000,1.0000000000
1717675297746,4.0000000000,0.0000000000,0.0000000000,31.0000000000,15.0000000000,1.0000000000
1717675297746,4.0000000000,0.0000000000,0.0000000000,31.0000000000,15.0000000000,1.0000000000
1717675297746,4.0000000000,0.0000000000,0.0000000000,31.0000000000,15.0000000000,1.0000000000
1717675297746,4.0000000000,0.0000000000,0.0000000000,31.0000000000,15.0000000000,1.0000000000
1717675297746,4.0000000000,0.0000000000,0.0000000000,31.0000000000,15.0000000000,1.0000000000
1717675297746,4.0000000000,0.0000000000,0.0000000000,30.0000000000,15.0000000000,1.0000000000
1717675297746,4.0000000000,0.0000000000,0.0000000000,30.0000000000,15.0000000000,1.0000000000
1717675297746,4.0000000000,0.0000000000,0.0000000000,30.0000000000,15.0000000000,1.0000000000
1717675297747,4.0000000000,0.0000000000,0.0000000000,30.0000000000,15.0000000000,1.0000000000
1717675297747,4.0000000000,0.0000000000,0.0000000000,30.0000000000,15.0000000000,1.0000000000
1717675297747,4.0000000000,0.0000000000,0.0000000000,30.0000000000,15.0000000000,1.0000000000
1717675297747,4.0000000000,0.0000000000,0.0000000000,30.0000000000,14.0000000000,1.0000000000
1717675297747,4.0000000000,0.0000000000,0.0000000000,29.0000000000,15.0000000000,1.0000000000
1717675297747,3.0000000000,0.0000000000,0.0000000000,29.0000000000,14.0000000000,1.0000000000
1717675297747,4.0000000000,0.0000000000,0.0000000000,29.0000000000,15.0000000000,1.0000000000
1717675297748,4.0000000000,0.0000000000,0.0000000000,29.0000000000,14.0000000000,1.0000000000
1717675297748,4.0000000000,0.0000000000,0.0000000000,29.0000000000,14.0000000000,1.0000000000
1717675297748,3.0000000000,0.0000000000,0.0000000000,29.0000000000,14.0000000000,1.0000000000
1717675297748,4.0000000000,0.0000000000,0.0000000000,28.0000000000,14.0000000000,1.0000000000
1717675297748,3.0000000000,0.0000000000,0.0000000000,28.0000000000,14.0000000000,1.0000000000
1717675297748,3.0000000000,0.0000000000,0.0000000000,28.0000000000,14.0000000000,2.0000000000
1717675297749,4.0000000000,0.0000000000,0.0000000000,28.0000000000,14.0000000000,2.0000000000
1717675297749,4.0000000000,0.0000000000,0.0000000000,32.0000000000,14.0000000000,2.0000000000
1717675297749,4.0000000000,0.0000000000,0.0000000000,77.0000000000,14.0000000000,2.0000000000
1717675297761,4.0000000000,0.0000000000,0.0000000000,76.0000000000,14.0000000000,2.0000000000
1717675297762,4.0000000000,0.0000000000,0.0000000000,76.0000000000,14.0000000000,1.0000000000
1717675297762,4.0000000000,0.0000000000,0.0000000000,75.0000000000,14.0000000000,1.0000000000
1717675297762,4.0000000000,0.0000000000,0.0000000000,74.0000000000,14.0000000000,1.0000000000
1717675297762,4.0000000000,0.0000000000,0.0000000000,73.0000000000,14.0000000000,1.0000000000
1717675297762,4.0000000000,0.0000000000,0.0000000000,73.0000000000,14.0000000000,1.0000000000
1717675297762,4.0000000000,0.0000000000,0.0000000000,73.0000000000,13.0000000000,1.0000000000
1717675297762,3.0000000000,0.0000000000,0.0000000000,73.0000000000,13.0000000000,1.0000000000
1717675297762,4.0000000000,0.0000000000,0.0000000000,71.0000000000,14.0000000000,2.0000000000
1717675297762,4.0000000000,0.0000000000,0.0000000000,71.0000000000,13.0000000000,1.0000000000
1717675297762,4.0000000000,0.0000000000,0.0000000000,71.0000000000,13.0000000000,1.0000000000
1717675297763,4.0000000000,0.0000000000,0.0000000000,71.0000000000,13.0000000000,1.0000000000
1717675297763,4.0000000000,0.0000000000,0.0000000000,71.0000000000,13.0000000000,1.0000000000
1717675297776,4.0000000000,0.0000000000,0.0000000000,71.0000000000,13.0000000000,1.0000000000
1717675297776,4.0000000000,0.0000000000,0.0000000000,71.0000000000,13.0000000000,1.0000000000
1717675297777,4.0000000000,0.0000000000,0.0000000000,70.0000000000,13.0000000000,1.0000000000
1717675297777,4.0000000000,0.0000000000,0.0000000000,70.0000000000,13.0000000000,1.0000000000
1717675297777,4.0000000000,0.0000000000,0.0000000000,70.0000000000,12.0000000000,1.0000000000
1717675297777,4.0000000000,0.0000000000,0.0000000000,69.0000000000,12.0000000000,1.0000000000
1717675297777,4.0000000000,0.0000000000,0.0000000000,68.0000000000,13.0000000000,1.0000000000
1717675297777,4.0000000000,0.0000000000,0.0000000000,68.0000000000,12.0000000000,1.0000000000
1717675297777,4.0000000000,0.0000000000,0.0000000000,67.0000000000,12.0000000000,1.0000000000
1717675297778,4.0000000000,0.0000000000,0.0000000000,67.0000000000,12.0000000000,1.0000000000
1717675297778,4.0000000000,0.0000000000,0.0000000000,67.0000000000,12.0000000000,1.0000000000
1717675297778,4.0000000000,0.0000000000,0.0000000000,67.0000000000,12.0000000000,1.0000000000
1717675297778,4.0000000000,0.0000000000,0.0000000000,67.0000000000,12.0000000000,1.0000000000
1717675297796,4.0000000000,0.0000000000,0.0000000000,66.0000000000,12.0000000000,1.0000000000
1717675297797,4.0000000000,0.0000000000,0.0000000000,66.0000000000,12.0000000000,1.0000000000
1717675297798,5.0000000000,0.0000000000,0.0000000000,66.0000000000,12.0000000000,1.0000000000
1717675297798,5.0000000000,0.0000000000,0.0000000000,65.0000000000,12.0000000000,1.0000000000
1717675297798,5.0000000000,0.0000000000,0.0000000000,65.0000000000,12.0000000000,1.0000000000
1717675297798,5.0000000000,0.0000000000,0.0000000000,65.0000000000,12.0000000000,1.0000000000
1717675297799,5.0000000000,0.0000000000,0.0000000000,64.0000000000,12.0000000000,1.0000000000
1717675297799,5.0000000000,0.0000000000,0.0000000000,64.0000000000,12.0000000000,1.0000000000
1717675297799,5.0000000000,0.0000000000,0.0000000000,63.0000000000,35.0000000000,1.0000000000
1717675297799,5.0000000000,0.0000000000,0.0000000000,63.0000000000,43.0000000000,1.0000000000
1717675297800,5.0000000000,0.0000000000,0.0000000000,63.0000000000,43.0000000000,1.0000000000
1717675297800,5.0000000000,0.0000000000,0.0000000000,63.0000000000,42.0000000000,1.0000000000
1717675297800,4.0000000000,0.0000000000,0.0000000000,63.0000000000,42.0000000000,1.0000000000
1717675297800,4.0000000000,0.0000000000,0.0000000000,119.0000000000,41.0000000000,1.0000000000
1717675297801,4.0000000000,0.0000000000,0.0000000000,116.0000000000,41.0000000000,1.0000000000
1717675297801,4.0000000000,0.0000000000,0.0000000000,115.0000000000,41.0000000000,1.0000000000
1717675297825,4.0000000000,0.0000000000,0.0000000000,115.0000000000,41.0000000000,1.0000000000
1717675297826,4.0000000000,0.0000000000,0.0000000000,115.0000000000,40.0000000000,1.0000000000
1717675297826,5.0000000000,0.0000000000,0.0000000000,113.0000000000,40.0000000000,1.0000000000
1717675297826,4.0000000000,0.0000000000,0.0000000000,113.0000000000,40.0000000000,1.0000000000
1717675297826,4.0000000000,0.0000000000,0.0000000000,112.0000000000,39.0000000000,1.0000000000
1717675297826,5.0000000000,0.0000000000,0.0000000000,112.0000000000,39.0000000000,1.0000000000
1717675297826,4.0000000000,0.0000000000,0.0000000000,112.0000000000,39.0000000000,1.0000000000
1717675297826,4.0000000000,0.0000000000,0.0000000000,111.0000000000,39.0000000000,1.0000000000
1717675297827,4.0000000000,0.0000000000,0.0000000000,110.0000000000,39.0000000000,1.0000000000
1717675297827,4.0000000000,0.0000000000,0.0000000000,109.0000000000,39.0000000000,1.0000000000
1717675297827,4.0000000000,0.0000000000,0.0000000000,109.0000000000,39.0000000000,1.0000000000
1717675297827,4.0000000000,0.0000000000,0.0000000000,108.0000000000,39.0000000000,1.0000000000
1717675297827,4.0000000000,0.0000000000,0.0000000000,108.0000000000,39.0000000000,1.0000000000
1717675297827,4.0000000000,0.0000000000,0.0000000000,108.0000000000,39.0000000000,1.0000000000
1717675297827,4.0000000000,0.0000000000,0.0000000000,107.0000000000,38.0000000000,1.0000000000
1717675297827,4.0000000000,0.0000000000,0.0000000000,107.0000000000,38.0000000000,1.0000000000
1717675297827,4.0000000000,0.0000000000,0.0000000000,105.0000000000,38.0000000000,1.0000000000
1717675297827,5.0000000000,0.0000000000,0.0000000000,105.0000000000,38.0000000000,1.0000000000
1717675297828,5.0000000000,0.0000000000,0.0000000000,104.0000000000,38.0000000000,1.0000000000
1717675297828,5.0000000000,0.0000000000,0.0000000000,103.0000000000,37.0000000000,1.0000000000
1717675297828,5.0000000000,0.0000000000,0.0000000000,103.0000000000,37.0000000000,1.0000000000
1717675297840,5.0000000000,0.0000000000,0.0000000000,103.0000000000,37.0000000000,0.0000000000
1717675297841,5.0000000000,0.0000000000,0.0000000000,103.0000000000,36.0000000000,1.0000000000
1717675297841,5.0000000000,0.0000000000,0.0000000000,103.0000000000,36.0000000000,1.0000000000
1717675297841,4.0000000000,0.0000000000,0.0000000000,102.0000000000,36.0000000000,1.0000000000
1717675297841,5.0000000000,0.0000000000,0.0000000000,102.0000000000,36.0000000000,0.0000000000
1717675297841,4.0000000000,0.0000000000,0.0000000000,101.0000000000,35.0000000000,0.0000000000
1717675297841,4.0000000000,0.0000000000,0.0000000000,100.0000000000,35.0000000000,1.0000000000
1717675297842,4.0000000000,0.0000000000,0.0000000000,99.0000000000,35.0000000000,1.0000000000
1717675297842,5.0000000000,0.0000000000,0.0000000000,99.0000000000,35.0000000000,1.0000000000
1717675297857,5.0000000000,0.0000000000,0.0000000000,99.0000000000,35.0000000000,1.0000000000
1717675297859,5.0000000000,0.0000000000,0.0000000000,99.0000000000,35.0000000000,0.0000000000
1717675297860,5.0000000000,0.0000000000,0.0000000000,98.0000000000,35.0000000000,1.0000000000
1717675297860,6.0000000000,0.0000000000,0.0000000000,97.0000000000,35.0000000000,0.0000000000
1717675297860,6.0000000000,0.0000000000,0.0000000000,97.0000000000,35.0000000000,0.0000000000
1717675297860,6.0000000000,0.0000000000,0.0000000000,97.0000000000,35.0000000000,0.0000000000
1717675297861,6.0000000000,0.0000000000,0.0000000000,96.0000000000,34.0000000000,1.0000000000
1717675297861,4.0000000000,0.0000000000,0.0000000000,96.0000000000,35.0000000000,1.0000000000
1717675297861,5.0000000000,0.0000000000,0.0000000000,96.0000000000,34.0000000000,0.0000000000
1717675297861,5.0000000000,0.0000000000,0.0000000000,96.0000000000,34.0000000000,0.0000000000
1717675297862,6.0000000000,0.0000000000,0.0000000000,95.0000000000,33.0000000000,1.0000000000
1717675297862,5.0000000000,0.0000000000,0.0000000000,94.0000000000,33.0000000000,1.0000000000
1717675297862,5.0000000000,0.0000000000,1.0000000000,95.0000000000,33.0000000000,1.0000000000
1717675297863,5.0000000000,0.0000000000,1.0000000000,94.0000000000,33.0000000000,0.0000000000
1717675297863,4.0000000000,0.0000000000,0.0000000000,93.0000000000,33.0000000000,0.0000000000
1717675297863,5.0000000000,0.0000000000,0.0000000000,93.0000000000,33.0000000000,9.0000000000
1717675297880,6.0000000000,0.0000000000,1.0000000000,92.0000000000,33.0000000000,30.0000000000
1717675297881,6.0000000000,0.0000000000,0.0000000000,92.0000000000,32.0000000000,30.0000000000
1717675297881,6.0000000000,0.0000000000,1.0000000000,92.0000000000,33.0000000000,30.0000000000
1717675297881,6.0000000000,0.0000000000,1.0000000000,91.0000000000,32.0000000000,30.0000000000
1717675297881,6.0000000000,0.0000000000,0.0000000000,91.0000000000,32.0000000000,29.0000000000
1717675297881,6.0000000000,0.0000000000,0.0000000000,91.0000000000,31.0000000000,29.0000000000
1717675297881,6.0000000000,0.0000000000,0.0000000000,90.0000000000,32.0000000000,29.0000000000
1717675297881,6.0000000000,0.0000000000,0.0000000000,89.0000000000,31.0000000000,29.0000000000
1717675297881,6.0000000000,0.0000000000,1.0000000000,89.0000000000,31.0000000000,29.0000000000
1717675297881,6.0000000000,0.0000000000,1.0000000000,89.0000000000,31.0000000000,28.0000000000
1717675297881,6.0000000000,0.0000000000,1.0000000000,88.0000000000,31.0000000000,28.0000000000
1717675297882,5.0000000000,0.0000000000,1.0000000000,88.0000000000,31.0000000000,28.0000000000
1717675297882,6.0000000000,0.0000000000,1.0000000000,88.0000000000,31.0000000000,28.0000000000
1717675297882,6.0000000000,0.0000000000,1.0000000000,88.0000000000,31.0000000000,28.0000000000
1717675297882,5.0000000000,0.0000000000,1.0000000000,87.0000000000,31.0000000000,28.0000000000
1717675297894,6.0000000000,0.0000000000,1.0000000000,93.0000000000,31.0000000000,28.0000000000
1717675297895,6.0000000000,0.0000000000,1.0000000000,92.0000000000,31.0000000000,27.0000000000
1717675297895,6.0000000000,0.0000000000,1.0000000000,92.0000000000,30.0000000000,27.0000000000
1717675297895,6.0000000000,0.0000000000,1.0000000000,92.0000000000,30.0000000000,27.0000000000
1717675297895,6.0000000000,0.0000000000,1.0000000000,91.0000000000,30.0000000000,27.0000000000
1717675297895,6.0000000000,0.0000000000,1.0000000000,91.0000000000,30.0000000000,27.0000000000
1717675297895,6.0000000000,0.0000000000,1.0000000000,90.0000000000,30.0000000000,27.0000000000
1717675297896,6.0000000000,0.0000000000,1.0000000000,89.0000000000,30.0000000000,27.0000000000
1717675297896,6.0000000000,0.0000000000,1.0000000000,89.0000000000,30.0000000000,27.0000000000
1717675297909,6.0000000000,0.0000000000,1.0000000000,89.0000000000,29.0000000000,26.0000000000
1717675297910,5.0000000000,0.0000000000,1.0000000000,88.0000000000,29.0000000000,26.0000000000
1717675297910,5.0000000000,0.0000000000,1.0000000000,88.0000000000,29.0000000000,25.0000000000
1717675297910,6.0000000000,0.0000000000,1.0000000000,88.0000000000,29.0000000000,25.0000000000
1717675297910,5.0000000000,0.0000000000,1.0000000000,88.0000000000,29.0000000000,25.0000000000
1717675297911,5.0000000000,0.0000000000,1.0000000000,88.0000000000,29.0000000000,25.0000000000
1717675297911,6.0000000000,0.0000000000,1.0000000000,87.0000000000,29.0000000000,25.0000000000
1717675297911,5.0000000000,0.0000000000,1.0000000000,87.0000000000,28.0000000000,25.0000000000
1717675297911,5.0000000000,0.0000000000,1.0000000000,86.0000000000,28.0000000000,25.0000000000
1717675297911,6.0000000000,0.0000000000,1.0000000000,86.0000000000,28.0000000000,25.0000000000
1717675297911,4.0000000000,0.0000000000,1.0000000000,85.0000000000,28.0000000000,25.0000000000
1717675297911,5.0000000000,0.0000000000,1.0000000000,84.0000000000,28.0000000000,24.0000000000
1717675297924,5.0000000000,0.0000000000,1.0000000000,84.0000000000,28.0000000000,24.0000000000
1717675297924,5.0000000000,0.0000000000,1.0000000000,112.0000000000,28.0000000000,24.0000000000
1717675297925,5.0000000000,0.0000000000,5.0000000000,144.0000000000,32.0000000000,24.0000000000
1717675297925,5.0000000000,0.0000000000,16.0000000000,143.0000000000,62.0000000000,24.0000000000
1717675297925,5.0000000000,0.0000000000,20.0000000000,143.0000000000,61.0000000000,24.0000000000
1717675297925,5.0000000000,0.0000000000,21.0000000000,142.0000000000,60.0000000000,24.0000000000
1717675297925,5.0000000000,0.0000000000,20.0000000000,140.0000000000,60.0000000000,24.0000000000
1717675297925,5.0000000000,0.0000000000,20.0000000000,140.0000000000,60.0000000000,24.0000000000
1717675297926,4.0000000000,0.0000000000,20.0000000000,139.0000000000,60.0000000000,24.0000000000
1717675297926,5.0000000000,0.0000000000,20.0000000000,137.0000000000,59.0000000000,24.0000000000
1717675297926,5.0000000000,0.0000000000,20.0000000000,137.0000000000,59.0000000000,24.0000000000
1717675297941,4.0000000000,0.0000000000,19.0000000000,135.0000000000,58.0000000000,23.0000000000
1717675297942,5.0000000000,0.0000000000,19.0000000000,171.0000000000,58.0000000000,23.0000000000
1717675297942,4.0000000000,0.0000000000,19.0000000000,169.0000000000,57.0000000000,23.0000000000
1717675297942,4.0000000000,0.0000000000,19.0000000000,167.0000000000,58.0000000000,23.0000000000
1717675297942,5.0000000000,0.0000000000,19.0000000000,167.0000000000,57.0000000000,23.0000000000
1717675297942,4.0000000000,0.0000000000,19.0000000000,166.0000000000,58.0000000000,23.0000000000
1717675297942,4.0000000000,0.0000000000,19.0000000000,164.0000000000,57.0000000000,22.0000000000
1717675297942,4.0000000000,0.0000000000,19.0000000000,163.0000000000,57.0000000000,22.0000000000
1717675297943,4.0000000000,0.0000000000,19.0000000000,163.0000000000,57.0000000000,22.0000000000
1717675297943,4.0000000000,0.0000000000,19.0000000000,161.0000000000,56.0000000000,22.0000000000
1717675297943,4.0000000000,0.0000000000,18.0000000000,161.0000000000,56.0000000000,22.0000000000
1717675297957,4.0000000000,0.0000000000,19.0000000000,159.0000000000,56.0000000000,22.0000000000
1717675297957,4.0000000000,0.0000000000,18.0000000000,159.0000000000,56.0000000000,22.0000000000
1717675297957,4.0000000000,0.0000000000,18.0000000000,224.0000000000,56.0000000000,22.0000000000
1717675297957,4.0000000000,0.0000000000,18.0000000000,222.0000000000,55.0000000000,22.0000000000
1717675297957,4.0000000000,0.0000000000,18.0000000000,220.0000000000,55.0000000000,21.0000000000
1717675297958,4.0000000000,0.0000000000,18.0000000000,219.0000000000,55.0000000000,21.0000000000
1717675297958,4.0000000000,0.0000000000,18.0000000000,217.0000000000,54.0000000000,21.0000000000
1717675297958,4.0000000000,0.0000000000,18.0000000000,216.0000000000,103.0000000000,20.0000000000
1717675297970,4.0000000000,0.0000000000,17.0000000000,215.0000000000,110.0000000000,21.0000000000
1717675297971,4.0000000000,0.0000000000,17.0000000000,213.0000000000,109.0000000000,20.0000000000
1717675297971,4.0000000000,0.0000000000,17.0000000000,211.0000000000,108.0000000000,20.0000000000
1717675297972,4.0000000000,0.0000000000,17.0000000000,210.0000000000,107.0000000000,20.0000000000
1717675297972,4.0000000000,0.0000000000,17.0000000000,209.0000000000,107.0000000000,20.0000000000
1717675297972,5.0000000000,0.0000000000,17.0000000000,207.0000000000,105.0000000000,20.0000000000
1717675297973,5.0000000000,0.0000000000,17.0000000000,207.0000000000,105.0000000000,20.0000000000
1717675297973,4.0000000000,0.0000000000,17.0000000000,206.0000000000,104.0000000000,19.0000000000
1717675297973,4.0000000000,0.0000000000,16.0000000000,204.0000000000,103.0000000000,19.0000000000
1717675297973,4.0000000000,0.0000000000,16.0000000000,203.0000000000,103.0000000000,19.0000000000
1717675297987,4.0000000000,0.0000000000,16.0000000000,201.0000000000,103.0000000000,19.0000000000
1717675297989,4.0000000000,0.0000000000,16.0000000000,200.0000000000,106.0000000000,19.0000000000
1717675297989,4.0000000000,0.0000000000,16.0000000000,248.0000000000,113.0000000000,19.0000000000
1717675297989,4.0000000000,0.0000000000,16.0000000000,286.0000000000,112.0000000000,19.0000000000
1717675297990,4.0000000000,0.0000000000,16.0000000000,283.0000000000,112.0000000000,19.0000000000
1717675297990,4.0000000000,0.0000000000,20.0000000000,280.0000000000,112.0000000000,19.0000000000
1717675297990,7.0000000000,0.0000000000,39.0000000000,279.0000000000,111.0000000000,19.0000000000
1717675297991,7.0000000000,0.0000000000,39.0000000000,277.0000000000,110.0000000000,19.0000000000
1717675297991,7.0000000000,0.0000000000,39.0000000000,393.0000000000,109.0000000000,19.0000000000
1717675297991,7.0000000000,0.0000000000,39.0000000000,449.0000000000,109.0000000000,19.0000000000
1717675297991,6.0000000000,0.0000000000,39.0000000000,444.0000000000,108.0000000000,18.0000000000
1717675297992,6.0000000000,0.0000000000,39.0000000000,440.0000000000,108.0000000000,18.0000000000
1717675298020,6.0000000000,0.0000000000,39.0000000000,436.0000000000,107.0000000000,18.0000000000
1717675298022,7.0000000000,0.0000000000,38.0000000000,433.0000000000,106.0000000000,18.0000000000
1717675298022,6.0000000000,0.0000000000,38.0000000000,430.0000000000,105.0000000000,18.0000000000
1717675298022,6.0000000000,0.0000000000,38.0000000000,428.0000000000,105.0000000000,18.0000000000
1717675298022,6.0000000000,0.0000000000,59.0000000000,423.0000000000,103.0000000000,17.0000000000
1717675298022,6.0000000000,0.0000000000,58.0000000000,420.0000000000,103.0000000000,17.0000000000
1717675298023,6.0000000000,0.0000000000,57.0000000000,417.0000000000,103.0000000000,17.0000000000
1717675298023,6.0000000000,0.0000000000,57.0000000000,415.0000000000,103.0000000000,17.0000000000
1717675298023,6.0000000000,0.0000000000,56.0000000000,411.0000000000,102.0000000000,17.0000000000
1717675298023,7.0000000000,0.0000000000,56.0000000000,408.0000000000,102.0000000000,17.0000000000
1717675298023,7.0000000000,0.0000000000,56.0000000000,406.0000000000,101.0000000000,17.0000000000
1717675298023,7.0000000000,0.0000000000,56.0000000000,403.0000000000,102.0000000000,17.0000000000
1717675298023,6.0000000000,0.0000000000,55.0000000000,399.0000000000,102.0000000000,16.0000000000
1717675298023,6.0000000000,0.0000000000,55.0000000000,397.0000000000,101.0000000000,17.0000000000
1717675298024,6.0000000000,0.0000000000,54.0000000000,395.0000000000,102.0000000000,17.0000000000
1717675298024,6.0000000000,0.0000000000,55.0000000000,455.0000000000,102.0000000000,16.0000000000
1717675298024,6.0000000000,0.0000000000,54.0000000000,451.0000000000,101.0000000000,16.0000000000
1717675298024,6.0000000000,0.0000000000,54.0000000000,447.0000000000,100.0000000000,16.0000000000
1717675298024,14.0000000000,0.0000000000,54.0000000000,444.0000000000,99.0000000000,16.0000000000
1717675298024,15.0000000000,0.0000000000,53.0000000000,440.0000000000,99.0000000000,16.0000000000
1717675298025,15.0000000000,0.0000000000,52.0000000000,436.0000000000,99.0000000000,15.0000000000
1717675298040,15.0000000000,0.0000000000,52.0000000000,433.0000000000,99.0000000000,16.0000000000
1717675298040,15.0000000000,0.0000000000,52.0000000000,431.0000000000,97.0000000000,15.0000000000
1717675298041,15.0000000000,0.0000000000,52.0000000000,428.0000000000,97.0000000000,15.0000000000
1717675298041,15.0000000000,0.0000000000,51.0000000000,423.0000000000,97.0000000000,15.0000000000
1717675298041,14.0000000000,0.0000000000,51.0000000000,422.0000000000,155.0000000000,15.0000000000
1717675298041,14.0000000000,0.0000000000,51.0000000000,418.0000000000,175.0000000000,15.0000000000
1717675298041,14.0000000000,0.0000000000,51.0000000000,415.0000000000,173.0000000000,15.0000000000
1717675298041,14.0000000000,0.0000000000,50.0000000000,412.0000000000,172.0000000000,15.0000000000
1717675298041,14.0000000000,0.0000000000,50.0000000000,408.0000000000,171.0000000000,15.0000000000
1717675298057,14.0000000000,0.0000000000,50.0000000000,406.0000000000,169.0000000000,15.0000000000
1717675298058,14.0000000000,0.0000000000,50.0000000000,403.0000000000,167.0000000000,15.0000000000
1717675298058,14.0000000000,0.0000000000,49.0000000000,399.0000000000,167.0000000000,15.0000000000
1717675298058,14.0000000000,0.0000000000,49.0000000000,398.0000000000,166.0000000000,15.0000000000
1717675298058,14.0000000000,0.0000000000,49.0000000000,394.0000000000,166.0000000000,15.0000000000
1717675298058,14.0000000000,0.0000000000,48.0000000000,391.0000000000,164.0000000000,15.0000000000
1717675298058,13.0000000000,0.0000000000,48.0000000000,390.0000000000,163.0000000000,15.0000000000
1717675298059,13.0000000000,0.0000000000,48.0000000000,387.0000000000,163.0000000000,14.0000000000
1717675298059,13.0000000000,0.0000000000,47.0000000000,384.0000000000,161.0000000000,15.0000000000
1717675298059,13.0000000000,0.0000000000,48.0000000000,455.0000000000,160.0000000000,14.0000000000
1717675298081,13.0000000000,0.0000000000,47.0000000000,451.0000000000,159.0000000000,14.0000000000
1717675298082,13.0000000000,0.0000000000,47.0000000000,446.0000000000,159.0000000000,14.0000000000
1717675298082,13.0000000000,0.0000000000,47.0000000000,443.0000000000,158.0000000000,14.0000000000
1717675298082,15.0000000000,0.0000000000,47.0000000000,440.0000000000,157.0000000000,14.0000000000
1717675298082,37.0000000000,0.0000000000,67.0000000000,435.0000000000,156.0000000000,14.0000000000
1717675298083,36.0000000000,0.0000000000,67.0000000000,432.0000000000,155.0000000000,14.0000000000
1717675298083,36.0000000000,0.0000000000,67.0000000000,429.0000000000,155.0000000000,14.0000000000
1717675298083,35.0000000000,7.0000000000,67.0000000000,426.0000000000,159.0000000000,14.0000000000
1717675298083,35.0000000000,7.0000000000,66.0000000000,474.0000000000,158.0000000000,14.0000000000
1717675298083,35.0000000000,7.0000000000,65.0000000000,513.0000000000,158.0000000000,14.0000000000
1717675298083,35.0000000000,7.0000000000,65.0000000000,510.0000000000,156.0000000000,14.0000000000
1717675298083,35.0000000000,7.0000000000,65.0000000000,504.0000000000,156.0000000000,14.0000000000
1717675298083,35.0000000000,7.0000000000,63.0000000000,500.0000000000,155.0000000000,14.0000000000
1717675298084,34.0000000000,7.0000000000,63.0000000000,495.0000000000,153.0000000000,13.0000000000
1717675298084,34.0000000000,7.0000000000,63.0000000000,492.0000000000,153.0000000000,13.0000000000
1717675298097,34.0000000000,7.0000000000,63.0000000000,487.0000000000,152.0000000000,13.0000000000
1717675298098,33.0000000000,7.0000000000,63.0000000000,483.0000000000,152.0000000000,13.0000000000
1717675298098,33.0000000000,7.0000000000,62.0000000000,480.0000000000,150.0000000000,13.0000000000
1717675298098,33.0000000000,7.0000000000,62.0000000000,476.0000000000,150.0000000000,12.0000000000
1717675298098,33.0000000000,7.0000000000,62.0000000000,472.0000000000,148.0000000000,13.0000000000
1717675298098,33.0000000000,7.0000000000,62.0000000000,468.0000000000,147.0000000000,13.0000000000
1717675298098,32.0000000000,7.0000000000,60.0000000000,465.0000000000,147.0000000000,12.0000000000
1717675298099,32.0000000000,7.0000000000,60.0000000000,496.0000000000,146.0000000000,13.0000000000
1717675298099,31.0000000000,7.0000000000,85.0000000000,491.0000000000,145.0000000000,12.0000000000
1717675298113,31.0000000000,7.0000000000,83.0000000000,487.0000000000,144.0000000000,12.0000000000
1717675298115,31.0000000000,7.0000000000,83.0000000000,508.0000000000,143.0000000000,12.0000000000
1717675298115,31.0000000000,7.0000000000,82.0000000000,504.0000000000,143.0000000000,12.0000000000
1717675298115,31.0000000000,7.0000000000,81.0000000000,500.0000000000,142.0000000000,12.0000000000
1717675298116,31.0000000000,7.0000000000,81.0000000000,495.0000000000,142.0000000000,12.0000000000
1717675298116,31.0000000000,7.0000000000,81.0000000000,492.0000000000,140.0000000000,12.0000000000
1717675298117,31.0000000000,7.0000000000,79.0000000000,487.0000000000,140.0000000000,12.0000000000
1717675298117,31.0000000000,7.0000000000,79.0000000000,483.0000000000,140.0000000000,12.0000000000
1717675298118,30.0000000000,7.0000000000,79.0000000000,479.0000000000,139.0000000000,12.0000000000
1717675298118,30.0000000000,6.0000000000,79.0000000000,476.0000000000,137.0000000000,12.0000000000
1717675298119,30.0000000000,7.0000000000,78.0000000000,472.0000000000,137.0000000000,12.0000000000
1717675298119,30.0000000000,6.0000000000,78.0000000000,469.0000000000,136.0000000000,22.0000000000
1717675298148,30.0000000000,7.0000000000,78.0000000000,465.0000000000,135.0000000000,22.0000000000
1717675298148,30.0000000000,7.0000000000,77.0000000000,461.0000000000,135.0000000000,23.0000000000
1717675298148,39.0000000000,6.0000000000,77.0000000000,471.0000000000,135.0000000000,22.0000000000
1717675298148,39.0000000000,6.0000000000,76.0000000000,546.0000000000,134.0000000000,22.0000000000
1717675298149,40.0000000000,6.0000000000,108.0000000000,615.0000000000,132.0000000000,22.0000000000
1717675298149,39.0000000000,6.0000000000,107.0000000000,608.0000000000,132.0000000000,22.0000000000
1717675298149,39.0000000000,6.0000000000,105.0000000000,603.0000000000,131.0000000000,22.0000000000
1717675298149,39.0000000000,6.0000000000,105.0000000000,596.0000000000,187.0000000000,21.0000000000
1717675298149,39.0000000000,7.0000000000,103.0000000000,632.0000000000,231.0000000000,21.0000000000
1717675298149,39.0000000000,7.0000000000,103.0000000000,624.0000000000,228.0000000000,21.0000000000
1717675298149,39.0000000000,7.0000000000,103.0000000000,616.0000000000,227.0000000000,20.0000000000
1717675298149,39.0000000000,7.0000000000,102.0000000000,611.0000000000,225.0000000000,20.0000000000
1717675298149,38.0000000000,7.0000000000,102.0000000000,604.0000000000,224.0000000000,20.0000000000
1717675298149,38.0000000000,6.0000000000,101.0000000000,600.0000000000,222.0000000000,20.0000000000
1717675298150,38.0000000000,7.0000000000,100.0000000000,593.0000000000,220.0000000000,20.0000000000
1717675298150,58.0000000000,6.0000000000,105.0000000000,589.0000000000,219.0000000000,20.0000000000
1717675298162,57.0000000000,6.0000000000,103.0000000000,583.0000000000,252.0000000000,20.0000000000
1717675298163,56.0000000000,7.0000000000,116.0000000000,702.0000000000,284.0000000000,19.0000000000
1717675298163,56.0000000000,7.0000000000,115.0000000000,694.0000000000,281.0000000000,19.0000000000
1717675298163,56.0000000000,7.0000000000,114.0000000000,685.0000000000,280.0000000000,19.0000000000
1717675298163,55.0000000000,7.0000000000,113.0000000000,679.0000000000,278.0000000000,19.0000000000
1717675298163,55.0000000000,7.0000000000,112.0000000000,671.0000000000,275.0000000000,19.0000000000
1717675298163,55.0000000000,7.0000000000,112.0000000000,663.0000000000,273.0000000000,19.0000000000
1717675298164,54.0000000000,7.0000000000,111.0000000000,657.0000000000,271.0000000000,20.0000000000
1717675298164,54.0000000000,7.0000000000,110.0000000000,649.0000000000,270.0000000000,19.0000000000
1717675298164,53.0000000000,7.0000000000,110.0000000000,644.0000000000,268.0000000000,19.0000000000
1717675298177,53.0000000000,7.0000000000,109.0000000000,637.0000000000,266.0000000000,19.0000000000
1717675298178,52.0000000000,7.0000000000,108.0000000000,630.0000000000,263.0000000000,19.0000000000
1717675298178,52.0000000000,7.0000000000,108.0000000000,625.0000000000,263.0000000000,19.0000000000
1717675298178,51.0000000000,7.0000000000,107.0000000000,669.0000000000,279.0000000000,19.0000000000
1717675298178,51.0000000000,9.0000000000,111.0000000000,677.0000000000,284.0000000000,19.0000000000
1717675298178,51.0000000000,9.0000000000,110.0000000000,668.0000000000,283.0000000000,19.0000000000
1717675298191,51.0000000000,9.0000000000,110.0000000000,722.0000000000,280.0000000000,18.0000000000
1717675298192,51.0000000000,9.0000000000,109.0000000000,711.0000000000,278.0000000000,19.0000000000
1717675298192,50.0000000000,9.0000000000,108.0000000000,704.0000000000,276.0000000000,18.0000000000
1717675298192,50.0000000000,9.0000000000,108.0000000000,696.0000000000,275.0000000000,18.0000000000
1717675298192,56.0000000000,9.0000000000,107.0000000000,688.0000000000,273.0000000000,18.0000000000
1717675298192,56.0000000000,9.0000000000,106.0000000000,682.0000000000,271.0000000000,18.0000000000
1717675298192,56.0000000000,9.0000000000,105.0000000000,674.0000000000,269.0000000000,18.0000000000
1717675298192,56.0000000000,9.0000000000,105.0000000000,667.0000000000,268.0000000000,18.0000000000
1717675298192,55.0000000000,9.0000000000,103.0000000000,661.0000000000,265.0000000000,18.0000000000
1717675298192,54.0000000000,9.0000000000,103.0000000000,654.0000000000,263.0000000000,17.0000000000
1717675298206,54.0000000000,9.0000000000,103.0000000000,647.0000000000,262.0000000000,17.0000000000
1717675298206,54.0000000000,8.0000000000,103.0000000000,639.0000000000,260.0000000000,17.0000000000
1717675298206,53.0000000000,8.0000000000,102.0000000000,633.0000000000,259.0000000000,17.0000000000
1717675298207,53.0000000000,8.0000000000,101.0000000000,628.0000000000,257.0000000000,17.0000000000
1717675298207,52.0000000000,9.0000000000,107.0000000000,622.0000000000,255.0000000000,17.0000000000
1717675298207,52.0000000000,7.0000000000,105.0000000000,617.0000000000,254.0000000000,17.0000000000
1717675298207,51.0000000000,7.0000000000,105.0000000000,610.0000000000,252.0000000000,17.0000000000
1717675298219,51.0000000000,7.0000000000,103.0000000000,606.0000000000,251.0000000000,17.0000000000
1717675298219,51.0000000000,7.0000000000,103.0000000000,600.0000000000,249.0000000000,17.0000000000
1717675298220,51.0000000000,7.0000000000,103.0000000000,594.0000000000,248.0000000000,17.0000000000
1717675298220,51.0000000000,11.0000000000,103.0000000000,590.0000000000,246.0000000000,17.0000000000
1717675298220,50.0000000000,11.0000000000,102.0000000000,583.0000000000,246.0000000000,17.0000000000
1717675298220,50.0000000000,10.0000000000,131.0000000000,578.0000000000,244.0000000000,16.0000000000
1717675298233,49.0000000000,10.0000000000,133.0000000000,572.0000000000,242.0000000000,16.0000000000
1717675298234,49.0000000000,10.0000000000,131.0000000000,568.0000000000,240.0000000000,16.0000000000
1717675298234,48.0000000000,10.0000000000,131.0000000000,562.0000000000,239.0000000000,15.0000000000
1717675298234,48.0000000000,9.0000000000,130.0000000000,556.0000000000,238.0000000000,16.0000000000
1717675298234,48.0000000000,9.0000000000,129.0000000000,553.0000000000,236.0000000000,15.0000000000
1717675298234,48.0000000000,9.0000000000,127.0000000000,547.0000000000,235.0000000000,15.0000000000
1717675298234,48.0000000000,9.0000000000,127.0000000000,543.0000000000,233.0000000000,15.0000000000
1717675298235,47.0000000000,9.0000000000,126.0000000000,540.0000000000,231.0000000000,15.0000000000
1717675298235,47.0000000000,9.0000000000,126.0000000000,535.0000000000,231.0000000000,15.0000000000
1717675298248,47.0000000000,9.0000000000,125.0000000000,531.0000000000,230.0000000000,15.0000000000
1717675298249,46.0000000000,9.0000000000,135.0000000000,526.0000000000,228.0000000000,15.0000000000
1717675298249,46.0000000000,9.0000000000,134.0000000000,522.0000000000,227.0000000000,15.0000000000
1717675298249,46.0000000000,9.0000000000,132.0000000000,518.0000000000,225.0000000000,15.0000000000
1717675298249,45.0000000000,9.0000000000,131.0000000000,513.0000000000,224.0000000000,15.0000000000
1717675298249,45.0000000000,9.0000000000,131.0000000000,510.0000000000,223.0000000000,15.0000000000
1717675298249,45.0000000000,9.0000000000,129.0000000000,505.0000000000,222.0000000000,15.0000000000
1717675298250,44.0000000000,9.0000000000,129.0000000000,502.0000000000,220.0000000000,15.0000000000
1717675298250,44.0000000000,9.0000000000,127.0000000000,497.0000000000,219.0000000000,14.0000000000
1717675298264,44.0000000000,9.0000000000,127.0000000000,494.0000000000,218.0000000000,15.0000000000
1717675298264,44.0000000000,9.0000000000,126.0000000000,491.0000000000,216.0000000000,14.0000000000
1717675298265,44.0000000000,9.0000000000,126.0000000000,486.0000000000,216.0000000000,14.0000000000
1717675298265,44.0000000000,9.0000000000,125.0000000000,483.0000000000,214.0000000000,14.0000000000
1717675298265,43.0000000000,9.0000000000,124.0000000000,479.0000000000,213.0000000000,14.0000000000
1717675298265,43.0000000000,9.0000000000,124.0000000000,475.0000000000,211.0000000000,14.0000000000
1717675298265,43.0000000000,8.0000000000,123.0000000000,472.0000000000,211.0000000000,14.0000000000
1717675298282,42.0000000000,8.0000000000,122.0000000000,468.0000000000,209.0000000000,14.0000000000
1717675298283,41.0000000000,7.0000000000,121.0000000000,568.0000000000,208.0000000000,14.0000000000
1717675298283,41.0000000000,8.0000000000,120.0000000000,596.0000000000,207.0000000000,14.0000000000
1717675298284,41.0000000000,7.0000000000,120.0000000000,671.0000000000,206.0000000000,14.0000000000
1717675298284,41.0000000000,7.0000000000,120.0000000000,662.0000000000,205.0000000000,13.0000000000
1717675298284,40.0000000000,7.0000000000,119.0000000000,654.0000000000,204.0000000000,13.0000000000
1717675298284,39.0000000000,12.0000000000,121.0000000000,647.0000000000,203.0000000000,13.0000000000
1717675298285,39.0000000000,12.0000000000,120.0000000000,639.0000000000,201.0000000000,14.0000000000
1717675298285,39.0000000000,12.0000000000,120.0000000000,633.0000000000,201.0000000000,14.0000000000
1717675298285,39.0000000000,12.0000000000,120.0000000000,702.0000000000,199.0000000000,14.0000000000
1717675298286,39.0000000000,12.0000000000,119.0000000000,694.0000000000,199.0000000000,14.0000000000
1717675298287,39.0000000000,12.0000000000,118.0000000000,685.0000000000,198.0000000000,14.0000000000
1717675298288,39.0000000000,12.0000000000,118.0000000000,677.0000000000,196.0000000000,14.0000000000
1717675298290,39.0000000000,12.0000000000,117.0000000000,728.0000000000,195.0000000000,13.0000000000
1717675298302,39.0000000000,12.0000000000,115.0000000000,719.0000000000,194.0000000000,14.0000000000
1717675298302,38.0000000000,12.0000000000,115.0000000000,711.0000000000,193.0000000000,13.0000000000
1717675298302,38.0000000000,11.0000000000,114.0000000000,702.0000000000,192.0000000000,13.0000000000
1717675298303,38.0000000000,12.0000000000,114.0000000000,694.0000000000,195.0000000000,13.0000000000
1717675298303,38.0000000000,12.0000000000,113.0000000000,685.0000000000,193.0000000000,13.0000000000
1717675298303,38.0000000000,12.0000000000,112.0000000000,679.0000000000,193.0000000000,13.0000000000
1717675298303,37.0000000000,11.0000000000,112.0000000000,671.0000000000,192.0000000000,13.0000000000
1717675298303,36.0000000000,11.0000000000,112.0000000000,664.0000000000,190.0000000000,14.0000000000
1717675298315,36.0000000000,11.0000000000,111.0000000000,670.0000000000,190.0000000000,13.0000000000
1717675298316,36.0000000000,11.0000000000,110.0000000000,664.0000000000,188.0000000000,13.0000000000
1717675298316,36.0000000000,12.0000000000,110.0000000000,655.0000000000,240.0000000000,13.0000000000
1717675298316,35.0000000000,11.0000000000,109.0000000000,648.0000000000,238.0000000000,13.0000000000
1717675298316,35.0000000000,11.0000000000,108.0000000000,641.0000000000,236.0000000000,13.0000000000
1717675298316,35.0000000000,12.0000000000,108.0000000000,636.0000000000,235.0000000000,12.0000000000
1717675298317,35.0000000000,14.0000000000,107.0000000000,630.0000000000,232.0000000000,12.0000000000
1717675298337,35.0000000000,13.0000000000,107.0000000000,623.0000000000,231.0000000000,12.0000000000
1717675298339,35.0000000000,13.0000000000,105.0000000000,615.0000000000,230.0000000000,12.0000000000
1717675298339,35.0000000000,13.0000000000,105.0000000000,611.0000000000,227.0000000000,12.0000000000
1717675298339,35.0000000000,13.0000000000,104.0000000000,605.0000000000,227.0000000000,12.0000000000
1717675298339,39.0000000000,13.0000000000,103.0000000000,599.0000000000,225.0000000000,12.0000000000
1717675298339,39.0000000000,13.0000000000,103.0000000000,809.0000000000,224.0000000000,14.0000000000
1717675298339,38.0000000000,13.0000000000,103.0000000000,799.0000000000,222.0000000000,14.0000000000
1717675298339,38.0000000000,12.0000000000,102.0000000000,788.0000000000,220.0000000000,14.0000000000
1717675298340,38.0000000000,13.0000000000,102.0000000000,777.0000000000,220.0000000000,14.0000000000
1717675298340,38.0000000000,12.0000000000,101.0000000000,768.0000000000,217.0000000000,14.0000000000
1717675298340,37.0000000000,12.0000000000,100.0000000000,760.0000000000,216.0000000000,13.0000000000
1717675298340,37.0000000000,12.0000000000,99.0000000000,750.0000000000,215.0000000000,13.0000000000
1717675298340,36.0000000000,12.0000000000,99.0000000000,740.0000000000,214.0000000000,13.0000000000
1717675298353,36.0000000000,12.0000000000,99.0000000000,835.0000000000,224.0000000000,13.0000000000
1717675298354,36.0000000000,12.0000000000,98.0000000000,822.0000000000,223.0000000000,13.0000000000
1717675298355,35.0000000000,12.0000000000,98.0000000000,813.0000000000,222.0000000000,13.0000000000
1717675298355,35.0000000000,12.0000000000,97.0000000000,802.0000000000,220.0000000000,13.0000000000
1717675298355,35.0000000000,12.0000000000,96.0000000000,792.0000000000,219.0000000000,13.0000000000
1717675298355,35.0000000000,12.0000000000,96.0000000000,783.0000000000,217.0000000000,13.0000000000
1717675298355,35.0000000000,12.0000000000,96.0000000000,773.0000000000,216.0000000000,12.0000000000
1717675298356,35.0000000000,12.0000000000,95.0000000000,766.0000000000,215.0000000000,13.0000000000
1717675298356,35.0000000000,12.0000000000,95.0000000000,756.0000000000,213.0000000000,12.0000000000
1717675298369,34.0000000000,11.0000000000,94.0000000000,747.0000000000,211.0000000000,12.0000000000
1717675298372,34.0000000000,11.0000000000,94.0000000000,740.0000000000,210.0000000000,13.0000000000
1717675298372,33.0000000000,11.0000000000,93.0000000000,783.0000000000,209.0000000000,13.0000000000
1717675298373,33.0000000000,12.0000000000,92.0000000000,775.0000000000,207.0000000000,12.0000000000
1717675298373,33.0000000000,11.0000000000,92.0000000000,765.0000000000,207.0000000000,12.0000000000
1717675298373,33.0000000000,11.0000000000,92.0000000000,757.0000000000,206.0000000000,12.0000000000
1717675298373,33.0000000000,11.0000000000,91.0000000000,748.0000000000,204.0000000000,12.0000000000
1717675298373,33.0000000000,12.0000000000,95.0000000000,738.0000000000,203.0000000000,12.0000000000
1717675298374,32.0000000000,14.0000000000,103.0000000000,732.0000000000,201.0000000000,12.0000000000
1717675298374,32.0000000000,14.0000000000,103.0000000000,798.0000000000,199.0000000000,12.0000000000
1717675298387,32.0000000000,14.0000000000,103.0000000000,787.0000000000,199.0000000000,12.0000000000
1717675298389,31.0000000000,14.0000000000,103.0000000000,775.0000000000,199.0000000000,12.0000000000
1717675298390,31.0000000000,14.0000000000,102.0000000000,769.0000000000,241.0000000000,12.0000000000
1717675298390,31.0000000000,13.0000000000,101.0000000000,758.0000000000,239.0000000000,12.0000000000
1717675298390,31.0000000000,13.0000000000,100.0000000000,748.0000000000,237.0000000000,12.0000000000
1717675298390,31.0000000000,13.0000000000,99.0000000000,739.0000000000,236.0000000000,11.0000000000
1717675298390,31.0000000000,13.0000000000,99.0000000000,732.0000000000,233.0000000000,12.0000000000
1717675298390,31.0000000000,13.0000000000,99.0000000000,723.0000000000,231.0000000000,11.0000000000
1717675298403,31.0000000000,12.0000000000,98.0000000000,717.0000000000,231.0000000000,11.0000000000
1717675298404,31.0000000000,13.0000000000,97.0000000000,708.0000000000,230.0000000000,11.0000000000
1717675298404,31.0000000000,12.0000000000,96.0000000000,703.0000000000,227.0000000000,11.0000000000
1717675298404,30.0000000000,12.0000000000,96.0000000000,695.0000000000,226.0000000000,11.0000000000
1717675298404,30.0000000000,12.0000000000,96.0000000000,687.0000000000,225.0000000000,11.0000000000
1717675298404,30.0000000000,12.0000000000,96.0000000000,680.0000000000,224.0000000000,11.0000000000
1717675298405,30.0000000000,12.0000000000,94.0000000000,673.0000000000,222.0000000000,11.0000000000
1717675298405,30.0000000000,12.0000000000,94.0000000000,668.0000000000,220.0000000000,11.0000000000
1717675298405,30.0000000000,12.0000000000,94.0000000000,660.0000000000,220.0000000000,11.0000000000
1717675298405,29.0000000000,12.0000000000,93.0000000000,654.0000000000,218.0000000000,11.0000000000
1717675298419,29.0000000000,12.0000000000,92.0000000000,647.0000000000,216.0000000000,11.0000000000
1717675298420,29.0000000000,12.0000000000,92.0000000000,641.0000000000,216.0000000000,10.0000000000
1717675298421,29.0000000000,12.0000000000,91.0000000000,636.0000000000,214.0000000000,10.0000000000
1717675298422,28.0000000000,12.0000000000,91.0000000000,630.0000000000,213.0000000000,10.0000000000
1717675298422,28.0000000000,12.0000000000,91.0000000000,624.0000000000,211.0000000000,10.0000000000
1717675298422,28.0000000000,12.0000000000,89.0000000000,619.0000000000,210.0000000000,10.0000000000
1717675298422,28.0000000000,12.0000000000,89.0000000000,612.0000000000,209.0000000000,9.0000000000
1717675298422,28.0000000000,12.0000000000,89.0000000000,608.0000000000,207.0000000000,10.0000000000
1717675298423,28.0000000000,11.0000000000,88.0000000000,601.0000000000,207.0000000000,9.0000000000
1717675298436,28.0000000000,11.0000000000,88.0000000000,597.0000000000,206.0000000000,9.0000000000
1717675298437,27.0000000000,11.0000000000,88.0000000000,591.0000000000,204.0000000000,9.0000000000
1717675298437,27.0000000000,11.0000000000,87.0000000000,587.0000000000,204.0000000000,9.0000000000
1717675298438,27.0000000000,11.0000000000,87.0000000000,583.0000000000,201.0000000000,9.0000000000
1717675298438,27.0000000000,11.0000000000,86.0000000000,577.0000000000,201.0000000000,9.0000000000
1717675298438,27.0000000000,11.0000000000,86.0000000000,573.0000000000,199.0000000000,9.0000000000
1717675298438,27.0000000000,11.0000000000,86.0000000000,568.0000000000,199.0000000000,9.0000000000
1717675298439,26.0000000000,11.0000000000,84.0000000000,563.0000000000,198.0000000000,9.0000000000
1717675298439,26.0000000000,11.0000000000,84.0000000000,560.0000000000,196.0000000000,9.0000000000
1717675298439,26.0000000000,11.0000000000,84.0000000000,555.0000000000,195.0000000000,9.0000000000
1717675298450,25.0000000000,10.0000000000,83.0000000000,550.0000000000,194.0000000000,9.0000000000
1717675298451,25.0000000000,10.0000000000,83.0000000000,545.0000000000,193.0000000000,9.0000000000
1717675298451,25.0000000000,10.0000000000,83.0000000000,542.0000000000,192.0000000000,9.0000000000
1717675298451,25.0000000000,10.0000000000,82.0000000000,537.0000000000,192.0000000000,8.0000000000
1717675298451,25.0000000000,9.0000000000,82.0000000000,533.0000000000,191.0000000000,8.0000000000
1717675298451,25.0000000000,10.0000000000,81.0000000000,530.0000000000,189.0000000000,8.0000000000
1717675298452,25.0000000000,9.0000000000,81.0000000000,527.0000000000,188.0000000000,8.0000000000
1717675298466,24.0000000000,9.0000000000,80.0000000000,521.0000000000,188.0000000000,8.0000000000
1717675298467,24.0000000000,9.0000000000,79.0000000000,518.0000000000,187.0000000000,8.0000000000
1717675298467,24.0000000000,9.0000000000,79.0000000000,515.0000000000,185.0000000000,7.0000000000
1717675298467,24.0000000000,9.0000000000,79.0000000000,512.0000000000,184.0000000000,7.0000000000
1717675298467,24.0000000000,9.0000000000,79.0000000000,507.0000000000,184.0000000000,7.0000000000
1717675298468,24.0000000000,9.0000000000,79.0000000000,504.0000000000,183.0000000000,8.0000000000
1717675298468,24.0000000000,9.0000000000,79.0000000000,500.0000000000,182.0000000000,7.0000000000
1717675298468,24.0000000000,9.0000000000,79.0000000000,497.0000000000,181.0000000000,8.0000000000
1717675298468,24.0000000000,9.0000000000,79.0000000000,493.0000000000,180.0000000000,7.0000000000
1717675298468,24.0000000000,9.0000000000,79.0000000000,490.0000000000,179.0000000000,7.0000000000
1717675298493,24.0000000000,9.0000000000,78.0000000000,487.0000000000,179.0000000000,7.0000000000
1717675298495,24.0000000000,11.0000000000,78.0000000000,483.0000000000,178.0000000000,7.0000000000
1717675298495,24.0000000000,11.0000000000,77.0000000000,480.0000000000,206.0000000000,7.0000000000
1717675298495,24.0000000000,11.0000000000,77.0000000000,478.0000000000,205.0000000000,7.0000000000
1717675298496,24.0000000000,10.0000000000,76.0000000000,473.0000000000,204.0000000000,7.0000000000
1717675298496,24.0000000000,10.0000000000,76.0000000000,471.0000000000,202.0000000000,7.0000000000
1717675298496,23.0000000000,11.0000000000,76.0000000000,467.0000000000,201.0000000000,7.0000000000
1717675298496,23.0000000000,10.0000000000,76.0000000000,463.0000000000,199.0000000000,7.0000000000
1717675298497,23.0000000000,10.0000000000,75.0000000000,460.0000000000,199.0000000000,7.0000000000
1717675298497,24.0000000000,10.0000000000,75.0000000000,457.0000000000,198.0000000000,7.0000000000
1717675298497,24.0000000000,10.0000000000,74.0000000000,455.0000000000,196.0000000000,15.0000000000
1717675298497,24.0000000000,9.0000000000,74.0000000000,451.0000000000,195.0000000000,15.0000000000
1717675298498,24.0000000000,10.0000000000,73.0000000000,448.0000000000,194.0000000000,15.0000000000
1717675298498,24.0000000000,9.0000000000,73.0000000000,445.0000000000,193.0000000000,14.0000000000
1717675298498,24.0000000000,9.0000000000,73.0000000000,443.0000000000,192.0000000000,15.0000000000
1717675298499,24.0000000000,9.0000000000,71.0000000000,440.0000000000,191.0000000000,14.0000000000
1717675298499,24.0000000000,9.0000000000,71.0000000000,436.0000000000,190.0000000000,14.0000000000
1717675298499,24.0000000000,9.0000000000,71.0000000000,434.0000000000,188.0000000000,14.0000000000
1717675298499,24.0000000000,9.0000000000,71.0000000000,431.0000000000,188.0000000000,14.0000000000
1717675298513,24.0000000000,9.0000000000,71.0000000000,532.0000000000,185.0000000000,14.0000000000
1717675298514,23.0000000000,9.0000000000,71.0000000000,526.0000000000,185.0000000000,14.0000000000
1717675298514,23.0000000000,9.0000000000,71.0000000000,521.0000000000,184.0000000000,14.0000000000
1717675298514,23.0000000000,9.0000000000,70.0000000000,516.0000000000,184.0000000000,13.0000000000
1717675298514,24.0000000000,8.0000000000,69.0000000000,512.0000000000,182.0000000000,14.0000000000
1717675298515,23.0000000000,9.0000000000,68.0000000000,508.0000000000,182.0000000000,14.0000000000
1717675298515,23.0000000000,9.0000000000,69.0000000000,504.0000000000,180.0000000000,13.0000000000
1717675298528,23.0000000000,9.0000000000,68.0000000000,499.0000000000,179.0000000000,13.0000000000
1717675298529,23.0000000000,9.0000000000,68.0000000000,536.0000000000,178.0000000000,13.0000000000
1717675298529,22.0000000000,9.0000000000,67.0000000000,531.0000000000,177.0000000000,13.0000000000
1717675298529,22.0000000000,9.0000000000,67.0000000000,527.0000000000,176.0000000000,13.0000000000
1717675298529,22.0000000000,8.0000000000,67.0000000000,521.0000000000,176.0000000000,13.0000000000
1717675298529,22.0000000000,9.0000000000,67.0000000000,517.0000000000,174.0000000000,12.0000000000
1717675298530,22.0000000000,7.0000000000,67.0000000000,512.0000000000,174.0000000000,13.0000000000
1717675298530,24.0000000000,9.0000000000,66.0000000000,508.0000000000,173.0000000000,13.0000000000
1717675298530,24.0000000000,7.0000000000,66.0000000000,556.0000000000,172.0000000000,13.0000000000
1717675298530,24.0000000000,8.0000000000,65.0000000000,551.0000000000,171.0000000000,12.0000000000
1717675298547,24.0000000000,10.0000000000,65.0000000000,546.0000000000,171.0000000000,12.0000000000
1717675298548,24.0000000000,9.0000000000,65.0000000000,542.0000000000,169.0000000000,12.0000000000
1717675298548,24.0000000000,9.0000000000,64.0000000000,537.0000000000,167.0000000000,12.0000000000
1717675298548,24.0000000000,9.0000000000,63.0000000000,531.0000000000,167.0000000000,12.0000000000
1717675298549,24.0000000000,9.0000000000,63.0000000000,527.0000000000,167.0000000000,12.0000000000
1717675298549,24.0000000000,10.0000000000,63.0000000000,523.0000000000,166.0000000000,12.0000000000
1717675298549,24.0000000000,10.0000000000,63.0000000000,518.0000000000,164.0000000000,12.0000000000
1717675298550,24.0000000000,10.0000000000,76.0000000000,513.0000000000,164.0000000000,12.0000000000
1717675298550,28.0000000000,9.0000000000,77.0000000000,510.0000000000,163.0000000000,12.0000000000
1717675298550,27.0000000000,9.0000000000,76.0000000000,504.0000000000,163.0000000000,12.0000000000
1717675298551,27.0000000000,9.0000000000,75.0000000000,500.0000000000,162.0000000000,12.0000000000
1717675298551,27.0000000000,9.0000000000,75.0000000000,496.0000000000,161.0000000000,12.0000000000
1717675298566,27.0000000000,9.0000000000,74.0000000000,493.0000000000,159.0000000000,12.0000000000
1717675298566,27.0000000000,11.0000000000,74.0000000000,488.0000000000,159.0000000000,12.0000000000
1717675298566,27.0000000000,12.0000000000,79.0000000000,562.0000000000,216.0000000000,11.0000000000
1717675298567,26.0000000000,12.0000000000,115.0000000000,553.0000000000,215.0000000000,11.0000000000
1717675298567,26.0000000000,11.0000000000,113.0000000000,547.0000000000,212.0000000000,11.0000000000
1717675298567,25.0000000000,11.0000000000,113.0000000000,543.0000000000,211.0000000000,11.0000000000
1717675298567,25.0000000000,11.0000000000,112.0000000000,537.0000000000,209.0000000000,11.0000000000
1717675298567,25.0000000000,11.0000000000,111.0000000000,531.0000000000,207.0000000000,11.0000000000
1717675298567,25.0000000000,11.0000000000,111.0000000000,526.0000000000,207.0000000000,11.0000000000
1717675298586,25.0000000000,11.0000000000,110.0000000000,521.0000000000,205.0000000000,11.0000000000
1717675298587,25.0000000000,11.0000000000,109.0000000000,518.0000000000,204.0000000000,11.0000000000
1717675298588,24.0000000000,11.0000000000,108.0000000000,512.0000000000,202.0000000000,11.0000000000
1717675298588,24.0000000000,12.0000000000,108.0000000000,507.0000000000,201.0000000000,10.0000000000
1717675298588,24.0000000000,12.0000000000,108.0000000000,503.0000000000,199.0000000000,10.0000000000
1717675298589,24.0000000000,12.0000000000,107.0000000000,499.0000000000,199.0000000000,9.0000000000
1717675298589,24.0000000000,12.0000000000,105.0000000000,494.0000000000,198.0000000000,10.0000000000
1717675298589,24.0000000000,12.0000000000,105.0000000000,489.0000000000,196.0000000000,10.0000000000
1717675298589,24.0000000000,12.0000000000,103.0000000000,486.0000000000,195.0000000000,10.0000000000
1717675298589,24.0000000000,12.0000000000,103.0000000000,481.0000000000,193.0000000000,10.0000000000
1717675298590,24.0000000000,12.0000000000,103.0000000000,478.0000000000,192.0000000000,10.0000000000
1717675298590,25.0000000000,12.0000000000,103.0000000000,472.0000000000,192.0000000000,9.0000000000
1717675298590,25.0000000000,12.0000000000,102.0000000000,470.0000000000,190.0000000000,9.0000000000
1717675298604,24.0000000000,14.0000000000,102.0000000000,465.0000000000,189.0000000000,9.0000000000
1717675298605,24.0000000000,14.0000000000,100.0000000000,463.0000000000,188.0000000000,9.0000000000
1717675298605,24.0000000000,14.0000000000,126.0000000000,483.0000000000,187.0000000000,9.0000000000
1717675298605,24.0000000000,13.0000000000,131.0000000000,516.0000000000,185.0000000000,9.0000000000
1717675298605,24.0000000000,14.0000000000,129.0000000000,512.0000000000,184.0000000000,9.0000000000
1717675298605,24.0000000000,14.0000000000,129.0000000000,508.0000000000,184.0000000000,9.0000000000
1717675298606,24.0000000000,13.0000000000,127.0000000000,504.0000000000,182.0000000000,9.0000000000
1717675298606,26.0000000000,13.0000000000,127.0000000000,499.0000000000,182.0000000000,11.0000000000
1717675298607,27.0000000000,13.0000000000,127.0000000000,504.0000000000,180.0000000000,10.0000000000
1717675298623,27.0000000000,13.0000000000,126.0000000000,551.0000000000,179.0000000000,11.0000000000
1717675298623,26.0000000000,13.0000000000,124.0000000000,547.0000000000,178.0000000000,10.0000000000
1717675298623,26.0000000000,24.0000000000,124.0000000000,541.0000000000,177.0000000000,10.0000000000
1717675298623,25.0000000000,23.0000000000,123.0000000000,536.0000000000,176.0000000000,9.0000000000
1717675298624,25.0000000000,23.0000000000,123.0000000000,531.0000000000,175.0000000000,10.0000000000
1717675298624,25.0000000000,23.0000000000,121.0000000000,526.0000000000,174.0000000000,10.0000000000
1717675298624,25.0000000000,23.0000000000,121.0000000000,520.0000000000,173.0000000000,9.0000000000
1717675298624,25.0000000000,22.0000000000,120.0000000000,516.0000000000,172.0000000000,9.0000000000
1717675298624,25.0000000000,22.0000000000,120.0000000000,511.0000000000,171.0000000000,9.0000000000
1717675298640,24.0000000000,22.0000000000,119.0000000000,507.0000000000,169.0000000000,9.0000000000
1717675298640,24.0000000000,22.0000000000,118.0000000000,503.0000000000,168.0000000000,9.0000000000
1717675298640,24.0000000000,22.0000000000,118.0000000000,499.0000000000,189.0000000000,9.0000000000
1717675298641,24.0000000000,22.0000000000,116.0000000000,495.0000000000,207.0000000000,9.0000000000
1717675298641,24.0000000000,21.0000000000,115.0000000000,489.0000000000,205.0000000000,9.0000000000
1717675298641,24.0000000000,21.0000000000,115.0000000000,486.0000000000,204.0000000000,9.0000000000
1717675298641,24.0000000000,20.0000000000,115.0000000000,482.0000000000,202.0000000000,9.0000000000
1717675298641,24.0000000000,20.0000000000,114.0000000000,478.0000000000,201.0000000000,9.0000000000
1717675298641,24.0000000000,20.0000000000,113.0000000000,475.0000000000,199.0000000000,9.0000000000
1717675298664,24.0000000000,20.0000000000,113.0000000000,470.0000000000,199.0000000000,9.0000000000
1717675298665,23.0000000000,20.0000000000,112.0000000000,466.0000000000,197.0000000000,8.0000000000
1717675298665,24.0000000000,19.0000000000,111.0000000000,463.0000000000,195.0000000000,9.0000000000
1717675298666,23.0000000000,20.0000000000,111.0000000000,492.0000000000,195.0000000000,7.0000000000
1717675298666,23.0000000000,19.0000000000,110.0000000000,495.0000000000,193.0000000000,9.0000000000
1717675298666,23.0000000000,19.0000000000,110.0000000000,489.0000000000,192.0000000000,8.0000000000
1717675298666,22.0000000000,19.0000000000,108.0000000000,487.0000000000,192.0000000000,7.0000000000
1717675298667,22.0000000000,19.0000000000,108.0000000000,481.0000000000,190.0000000000,7.0000000000
1717675298667,22.0000000000,19.0000000000,108.0000000000,477.0000000000,189.0000000000,7.0000000000
1717675298667,22.0000000000,19.0000000000,129.0000000000,474.0000000000,188.0000000000,7.0000000000
1717675298667,22.0000000000,19.0000000000,135.0000000000,469.0000000000,187.0000000000,7.0000000000
1717675298667,22.0000000000,19.0000000000,135.0000000000,465.0000000000,185.0000000000,7.0000000000
1717675298668,22.0000000000,19.0000000000,135.0000000000,462.0000000000,184.0000000000,7.0000000000
1717675298668,22.0000000000,19.0000000000,134.0000000000,457.0000000000,184.0000000000,7.0000000000
1717675298668,22.0000000000,19.0000000000,132.0000000000,454.0000000000,182.0000000000,7.0000000000
1717675298668,21.0000000000,18.0000000000,131.0000000000,450.0000000000,181.0000000000,7.0000000000
1717675298697,21.0000000000,18.0000000000,131.0000000000,448.0000000000,179.0000000000,7.0000000000
1717675298697,21.0000000000,18.0000000000,130.0000000000,444.0000000000,179.0000000000,7.0000000000
1717675298697,21.0000000000,18.0000000000,129.0000000000,440.0000000000,177.0000000000,7.0000000000
1717675298697,20.0000000000,18.0000000000,127.0000000000,438.0000000000,176.0000000000,7.0000000000
1717675298698,20.0000000000,17.0000000000,127.0000000000,433.0000000000,176.0000000000,7.0000000000
1717675298698,20.0000000000,17.0000000000,127.0000000000,431.0000000000,175.0000000000,7.0000000000
1717675298698,20.0000000000,17.0000000000,126.0000000000,428.0000000000,174.0000000000,7.0000000000
1717675298698,20.0000000000,17.0000000000,126.0000000000,425.0000000000,173.0000000000,17.0000000000
1717675298698,33.0000000000,17.0000000000,124.0000000000,422.0000000000,172.0000000000,16.0000000000
1717675298698,32.0000000000,17.0000000000,124.0000000000,476.0000000000,171.0000000000,16.0000000000
1717675298698,32.0000000000,17.0000000000,124.0000000000,486.0000000000,172.0000000000,16.0000000000
1717675298698,31.0000000000,17.0000000000,122.0000000000,481.0000000000,170.0000000000,16.0000000000
1717675298698,31.0000000000,16.0000000000,121.0000000000,478.0000000000,169.0000000000,15.0000000000
1717675298698,31.0000000000,17.0000000000,121.0000000000,473.0000000000,167.0000000000,15.0000000000
1717675298698,31.0000000000,16.0000000000,120.0000000000,468.0000000000,167.0000000000,15.0000000000
1717675298699,31.0000000000,16.0000000000,120.0000000000,484.0000000000,166.0000000000,15.0000000000
1717675298711,31.0000000000,15.0000000000,119.0000000000,514.0000000000,165.0000000000,15.0000000000
1717675298712,31.0000000000,15.0000000000,118.0000000000,508.0000000000,164.0000000000,15.0000000000
1717675298712,30.0000000000,16.0000000000,118.0000000000,504.0000000000,163.0000000000,15.0000000000
1717675298712,30.0000000000,16.0000000000,116.0000000000,498.0000000000,162.0000000000,15.0000000000
1717675298713,30.0000000000,15.0000000000,115.0000000000,495.0000000000,161.0000000000,15.0000000000
1717675298713,30.0000000000,15.0000000000,115.0000000000,489.0000000000,160.0000000000,15.0000000000
1717675298713,29.0000000000,15.0000000000,115.0000000000,485.0000000000,159.0000000000,15.0000000000
1717675298713,29.0000000000,15.0000000000,113.0000000000,480.0000000000,159.0000000000,15.0000000000
1717675298713,29.0000000000,15.0000000000,113.0000000000,477.0000000000,158.0000000000,14.0000000000
1717675298726,29.0000000000,15.0000000000,112.0000000000,472.0000000000,157.0000000000,14.0000000000
1717675298728,28.0000000000,15.0000000000,112.0000000000,467.0000000000,156.0000000000,14.0000000000
1717675298729,28.0000000000,15.0000000000,112.0000000000,463.0000000000,155.0000000000,14.0000000000
1717675298729,28.0000000000,15.0000000000,110.0000000000,460.0000000000,154.0000000000,14.0000000000
1717675298729,28.0000000000,15.0000000000,110.0000000000,456.0000000000,153.0000000000,14.0000000000
1717675298730,28.0000000000,15.0000000000,110.0000000000,452.0000000000,152.0000000000,14.0000000000
1717675298730,28.0000000000,15.0000000000,108.0000000000,448.0000000000,152.0000000000,14.0000000000
1717675298731,28.0000000000,15.0000000000,108.0000000000,445.0000000000,151.0000000000,14.0000000000
1717675298749,28.0000000000,14.0000000000,107.0000000000,441.0000000000,150.0000000000,13.0000000000
1717675298751,28.0000000000,14.0000000000,107.0000000000,438.0000000000,150.0000000000,13.0000000000
1717675298751,27.0000000000,14.0000000000,106.0000000000,434.0000000000,148.0000000000,13.0000000000
1717675298751,27.0000000000,14.0000000000,105.0000000000,431.0000000000,147.0000000000,13.0000000000
1717675298751,27.0000000000,14.0000000000,104.0000000000,428.0000000000,147.0000000000,13.0000000000
1717675298752,27.0000000000,14.0000000000,103.0000000000,423.0000000000,146.0000000000,13.0000000000
1717675298752,27.0000000000,14.0000000000,103.0000000000,420.0000000000,145.0000000000,13.0000000000
1717675298752,26.0000000000,14.0000000000,103.0000000000,417.0000000000,145.0000000000,13.0000000000
1717675298752,26.0000000000,13.0000000000,103.0000000000,415.0000000000,143.0000000000,13.0000000000
1717675298753,25.0000000000,14.0000000000,102.0000000000,412.0000000000,143.0000000000,13.0000000000
1717675298753,25.0000000000,13.0000000000,102.0000000000,408.0000000000,143.0000000000,12.0000000000
1717675298753,25.0000000000,13.0000000000,100.0000000000,439.0000000000,142.0000000000,12.0000000000
1717675298754,25.0000000000,13.0000000000,100.0000000000,435.0000000000,141.0000000000,12.0000000000
1717675298754,25.0000000000,13.0000000000,99.0000000000,431.0000000000,140.0000000000,12.0000000000
1717675298783,24.0000000000,13.0000000000,99.0000000000,428.0000000000,140.0000000000,12.0000000000
1717675298783,24.0000000000,13.0000000000,99.0000000000,423.0000000000,139.0000000000,12.0000000000
1717675298783,24.0000000000,13.0000000000,98.0000000000,419.0000000000,138.0000000000,12.0000000000
1717675298783,24.0000000000,12.0000000000,97.0000000000,417.0000000000,137.0000000000,12.0000000000
1717675298783,24.0000000000,12.0000000000,96.0000000000,414.0000000000,136.0000000000,12.0000000000
1717675298784,24.0000000000,12.0000000000,96.0000000000,411.0000000000,135.0000000000,12.0000000000
1717675298784,24.0000000000,12.0000000000,96.0000000000,428.0000000000,135.0000000000,12.0000000000
1717675298784,24.0000000000,12.0000000000,95.0000000000,423.0000000000,135.0000000000,12.0000000000
1717675298784,24.0000000000,12.0000000000,95.0000000000,420.0000000000,134.0000000000,12.0000000000
1717675298784,24.0000000000,21.0000000000,94.0000000000,417.0000000000,160.0000000000,11.0000000000
1717675298784,24.0000000000,24.0000000000,94.0000000000,414.0000000000,159.0000000000,12.0000000000
1717675298784,24.0000000000,24.0000000000,93.0000000000,409.0000000000,158.0000000000,11.0000000000
1717675298784,24.0000000000,24.0000000000,92.0000000000,407.0000000000,157.0000000000,11.0000000000
1717675298784,24.0000000000,24.0000000000,92.0000000000,419.0000000000,156.0000000000,12.0000000000
1717675298784,23.0000000000,24.0000000000,96.0000000000,414.0000000000,155.0000000000,11.0000000000
1717675298784,23.0000000000,24.0000000000,96.0000000000,412.0000000000,153.0000000000,11.0000000000
1717675298798,23.0000000000,23.0000000000,95.0000000000,408.0000000000,153.0000000000,11.0000000000
1717675298799,23.0000000000,23.0000000000,94.0000000000,405.0000000000,152.0000000000,11.0000000000
1717675298799,23.0000000000,23.0000000000,94.0000000000,401.0000000000,151.0000000000,11.0000000000
1717675298800,22.0000000000,23.0000000000,93.0000000000,399.0000000000,151.0000000000,11.0000000000
1717675298800,22.0000000000,23.0000000000,92.0000000000,396.0000000000,150.0000000000,11.0000000000
1717675298800,22.0000000000,23.0000000000,92.0000000000,393.0000000000,148.0000000000,11.0000000000
1717675298800,22.0000000000,22.0000000000,92.0000000000,391.0000000000,147.0000000000,11.0000000000
1717675298800,22.0000000000,22.0000000000,91.0000000000,388.0000000000,147.0000000000,11.0000000000
1717675298800,22.0000000000,22.0000000000,91.0000000000,403.0000000000,145.0000000000,10.0000000000
1717675298824,22.0000000000,22.0000000000,95.0000000000,400.0000000000,145.0000000000,10.0000000000
1717675298825,22.0000000000,22.0000000000,95.0000000000,397.0000000000,144.0000000000,10.0000000000
1717675298825,22.0000000000,22.0000000000,94.0000000000,394.0000000000,143.0000000000,10.0000000000
1717675298825,24.0000000000,22.0000000000,93.0000000000,391.0000000000,142.0000000000,11.0000000000
1717675298825,23.0000000000,21.0000000000,92.0000000000,387.0000000000,142.0000000000,10.0000000000
1717675298825,23.0000000000,21.0000000000,92.0000000000,385.0000000000,141.0000000000,10.0000000000
1717675298825,23.0000000000,21.0000000000,92.0000000000,384.0000000000,140.0000000000,10.0000000000
1717675298825,23.0000000000,20.0000000000,91.0000000000,384.0000000000,139.0000000000,10.0000000000
1717675298826,22.0000000000,20.0000000000,91.0000000000,455.0000000000,139.0000000000,9.0000000000
1717675298826,22.0000000000,20.0000000000,94.0000000000,452.0000000000,137.0000000000,10.0000000000
1717675298826,22.0000000000,20.0000000000,93.0000000000,448.0000000000,136.0000000000,9.0000000000
1717675298826,22.0000000000,20.0000000000,92.0000000000,444.0000000000,135.0000000000,9.0000000000
1717675298826,22.0000000000,20.0000000000,92.0000000000,440.0000000000,135.0000000000,10.0000000000
1717675298826,28.0000000000,19.0000000000,92.0000000000,437.0000000000,135.0000000000,10.0000000000
1717675298826,30.0000000000,19.0000000000,91.0000000000,433.0000000000,134.0000000000,9.0000000000
1717675298827,30.0000000000,19.0000000000,90.0000000000,451.0000000000,133.0000000000,9.0000000000
1717675298841,29.0000000000,19.0000000000,90.0000000000,449.0000000000,132.0000000000,9.0000000000
1717675298842,29.0000000000,19.0000000000,89.0000000000,447.0000000000,132.0000000000,9.0000000000
1717675298842,29.0000000000,19.0000000000,88.0000000000,443.0000000000,131.0000000000,9.0000000000
1717675298842,28.0000000000,19.0000000000,88.0000000000,440.0000000000,131.0000000000,9.0000000000
1717675298842,28.0000000000,19.0000000000,88.0000000000,435.0000000000,130.0000000000,9.0000000000
1717675298842,28.0000000000,19.0000000000,90.0000000000,432.0000000000,129.0000000000,9.0000000000
1717675298842,28.0000000000,19.0000000000,89.0000000000,429.0000000000,128.0000000000,9.0000000000
1717675298860,28.0000000000,19.0000000000,89.0000000000,425.0000000000,127.0000000000,9.0000000000
1717675298861,28.0000000000,19.0000000000,89.0000000000,422.0000000000,127.0000000000,9.0000000000
1717675298862,27.0000000000,18.0000000000,88.0000000000,419.0000000000,127.0000000000,9.0000000000
1717675298862,27.0000000000,18.0000000000,88.0000000000,415.0000000000,126.0000000000,9.0000000000
1717675298862,27.0000000000,18.0000000000,88.0000000000,413.0000000000,126.0000000000,9.0000000000
1717675298862,27.0000000000,17.0000000000,87.0000000000,409.0000000000,125.0000000000,8.0000000000
1717675298863,27.0000000000,18.0000000000,86.0000000000,407.0000000000,124.0000000000,9.0000000000
1717675298863,27.0000000000,17.0000000000,86.0000000000,403.0000000000,124.0000000000,8.0000000000
1717675298863,26.0000000000,17.0000000000,86.0000000000,401.0000000000,124.0000000000,9.0000000000
1717675298863,25.0000000000,17.0000000000,85.0000000000,398.0000000000,123.0000000000,9.0000000000
1717675298864,26.0000000000,17.0000000000,84.0000000000,395.0000000000,122.0000000000,9.0000000000
1717675298864,25.0000000000,17.0000000000,85.0000000000,391.0000000000,121.0000000000,14.0000000000
1717675298864,25.0000000000,17.0000000000,118.0000000000,389.0000000000,121.0000000000,14.0000000000
1717675298865,25.0000000000,17.0000000000,116.0000000000,386.0000000000,120.0000000000,14.0000000000
1717675298889,25.0000000000,17.0000000000,115.0000000000,384.0000000000,120.0000000000,14.0000000000
1717675298890,25.0000000000,17.0000000000,115.0000000000,380.0000000000,119.0000000000,14.0000000000
1717675298890,25.0000000000,17.0000000000,114.0000000000,377.0000000000,119.0000000000,14.0000000000
1717675298890,25.0000000000,16.0000000000,113.0000000000,376.0000000000,118.0000000000,13.0000000000
1717675298890,24.0000000000,17.0000000000,113.0000000000,372.0000000000,117.0000000000,13.0000000000
1717675298890,24.0000000000,16.0000000000,112.0000000000,371.0000000000,116.0000000000,13.0000000000
1717675298890,24.0000000000,16.0000000000,111.0000000000,368.0000000000,116.0000000000,13.0000000000
1717675298891,24.0000000000,16.0000000000,111.0000000000,428.0000000000,159.0000000000,13.0000000000
1717675298891,24.0000000000,15.0000000000,110.0000000000,519.0000000000,223.0000000000,13.0000000000
1717675298891,24.0000000000,16.0000000000,108.0000000000,515.0000000000,220.0000000000,13.0000000000
1717675298891,24.0000000000,16.0000000000,108.0000000000,510.0000000000,219.0000000000,13.0000000000
1717675298891,23.0000000000,15.0000000000,108.0000000000,505.0000000000,217.0000000000,13.0000000000
1717675298891,24.0000000000,15.0000000000,107.0000000000,500.0000000000,216.0000000000,13.0000000000
1717675298891,23.0000000000,15.0000000000,106.0000000000,496.0000000000,255.0000000000,12.0000000000
1717675298908,24.0000000000,23.0000000000,105.0000000000,492.0000000000,345.0000000000,13.0000000000
1717675298909,23.0000000000,23.0000000000,105.0000000000,487.0000000000,342.0000000000,13.0000000000
1717675298909,22.0000000000,23.0000000000,103.0000000000,483.0000000000,339.0000000000,12.0000000000
1717675298910,23.0000000000,22.0000000000,103.0000000000,480.0000000000,335.0000000000,13.0000000000
1717675298910,23.0000000000,22.0000000000,103.0000000000,475.0000000000,333.0000000000,13.0000000000
1717675298910,22.0000000000,22.0000000000,102.0000000000,470.0000000000,332.0000000000,12.0000000000
1717675298910,22.0000000000,22.0000000000,102.0000000000,549.0000000000,327.0000000000,12.0000000000
1717675298911,22.0000000000,21.0000000000,101.0000000000,543.0000000000,326.0000000000,12.0000000000
1717675298911,22.0000000000,21.0000000000,100.0000000000,538.0000000000,323.0000000000,12.0000000000
1717675298911,22.0000000000,21.0000000000,100.0000000000,532.0000000000,321.0000000000,12.0000000000
1717675298911,21.0000000000,21.0000000000,99.0000000000,527.0000000000,319.0000000000,12.0000000000
1717675298927,21.0000000000,21.0000000000,99.0000000000,523.0000000000,316.0000000000,12.0000000000
1717675298927,21.0000000000,20.0000000000,98.0000000000,518.0000000000,315.0000000000,12.0000000000
1717675298927,21.0000000000,20.0000000000,97.0000000000,544.0000000000,312.0000000000,12.0000000000
1717675298928,21.0000000000,19.0000000000,97.0000000000,539.0000000000,312.0000000000,11.0000000000
1717675298928,21.0000000000,20.0000000000,96.0000000000,534.0000000000,308.0000000000,12.0000000000
1717675298928,20.0000000000,19.0000000000,96.0000000000,528.0000000000,306.0000000000,12.0000000000
1717675298928,20.0000000000,19.0000000000,95.0000000000,523.0000000000,305.0000000000,11.0000000000
1717675298928,20.0000000000,19.0000000000,95.0000000000,519.0000000000,303.0000000000,11.0000000000
1717675298928,20.0000000000,19.0000000000,94.0000000000,513.0000000000,300.0000000000,11.0000000000
1717675298945,20.0000000000,19.0000000000,94.0000000000,510.0000000000,299.0000000000,11.0000000000
1717675298945,20.0000000000,19.0000000000,94.0000000000,505.0000000000,296.0000000000,11.0000000000
1717675298946,19.0000000000,19.0000000000,93.0000000000,500.0000000000,295.0000000000,11.0000000000
1717675298946,19.0000000000,19.0000000000,92.0000000000,497.0000000000,294.0000000000,11.0000000000
1717675298946,19.0000000000,19.0000000000,92.0000000000,492.0000000000,291.0000000000,11.0000000000
1717675298946,19.0000000000,19.0000000000,92.0000000000,488.0000000000,289.0000000000,11.0000000000
1717675298946,19.0000000000,19.0000000000,91.0000000000,484.0000000000,287.0000000000,10.0000000000
1717675298946,19.0000000000,19.0000000000,91.0000000000,536.0000000000,286.0000000000,20.0000000000
1717675298946,19.0000000000,18.0000000000,89.0000000000,531.0000000000,284.0000000000,20.0000000000
1717675298947,19.0000000000,18.0000000000,89.0000000000,526.0000000000,283.0000000000,20.0000000000
1717675298947,19.0000000000,17.0000000000,89.0000000000,521.0000000000,281.0000000000,20.0000000000
1717675298963,19.0000000000,18.0000000000,88.0000000000,516.0000000000,280.0000000000,20.0000000000
1717675298965,19.0000000000,18.0000000000,88.0000000000,512.0000000000,278.0000000000,19.0000000000
1717675298965,19.0000000000,18.0000000000,88.0000000000,508.0000000000,275.0000000000,19.0000000000
1717675298965,18.0000000000,17.0000000000,87.0000000000,503.0000000000,275.0000000000,19.0000000000
1717675298965,18.0000000000,17.0000000000,87.0000000000,499.0000000000,272.0000000000,19.0000000000
1717675298966,18.0000000000,17.0000000000,86.0000000000,494.0000000000,271.0000000000,19.0000000000
1717675298966,18.0000000000,17.0000000000,86.0000000000,491.0000000000,270.0000000000,19.0000000000
1717675298966,18.0000000000,17.0000000000,85.0000000000,486.0000000000,268.0000000000,19.0000000000
1717675298966,18.0000000000,17.0000000000,84.0000000000,481.0000000000,267.0000000000,20.0000000000
1717675298967,56.0000000000,17.0000000000,135.0000000000,577.0000000000,263.0000000000,19.0000000000
1717675298967,55.0000000000,17.0000000000,135.0000000000,571.0000000000,263.0000000000,20.0000000000
1717675298967,54.0000000000,16.0000000000,134.0000000000,563.0000000000,262.0000000000,19.0000000000
1717675298991,54.0000000000,16.0000000000,132.0000000000,558.0000000000,259.0000000000,19.0000000000
1717675298991,53.0000000000,16.0000000000,131.0000000000,553.0000000000,259.0000000000,19.0000000000
1717675298992,53.0000000000,16.0000000000,130.0000000000,548.0000000000,255.0000000000,19.0000000000
1717675298992,52.0000000000,16.0000000000,129.0000000000,542.0000000000,255.0000000000,19.0000000000
1717675298992,51.0000000000,15.0000000000,129.0000000000,536.0000000000,254.0000000000,19.0000000000
1717675298992,51.0000000000,15.0000000000,177.0000000000,532.0000000000,252.0000000000,18.0000000000
1717675298992,51.0000000000,15.0000000000,174.0000000000,527.0000000000,251.0000000000,19.0000000000
1717675298992,51.0000000000,15.0000000000,172.0000000000,521.0000000000,249.0000000000,19.0000000000
1717675298992,51.0000000000,15.0000000000,171.0000000000,517.0000000000,248.0000000000,18.0000000000
1717675298992,50.0000000000,15.0000000000,169.0000000000,513.0000000000,247.0000000000,18.0000000000
1717675298992,50.0000000000,15.0000000000,167.0000000000,508.0000000000,244.0000000000,17.0000000000
1717675298992,49.0000000000,15.0000000000,167.0000000000,504.0000000000,243.0000000000,18.0000000000
1717675298992,49.0000000000,15.0000000000,166.0000000000,499.0000000000,241.0000000000,17.0000000000
1717675299005,49.0000000000,15.0000000000,165.0000000000,595.0000000000,240.0000000000,17.0000000000
1717675299006,49.0000000000,15.0000000000,164.0000000000,589.0000000000,239.0000000000,18.0000000000
1717675299006,48.0000000000,15.0000000000,163.0000000000,582.0000000000,238.0000000000,17.0000000000
1717675299006,48.0000000000,15.0000000000,162.0000000000,575.0000000000,236.0000000000,17.0000000000
1717675299006,47.0000000000,15.0000000000,160.0000000000,569.0000000000,235.0000000000,17.0000000000
1717675299006,47.0000000000,14.0000000000,159.0000000000,565.0000000000,233.0000000000,17.0000000000
1717675299021,47.0000000000,15.0000000000,159.0000000000,559.0000000000,231.0000000000,17.0000000000
1717675299022,46.0000000000,14.0000000000,158.0000000000,553.0000000000,231.0000000000,17.0000000000
1717675299022,47.0000000000,14.0000000000,157.0000000000,547.0000000000,230.0000000000,16.0000000000
1717675299023,46.0000000000,14.0000000000,156.0000000000,543.0000000000,228.0000000000,17.0000000000
1717675299023,46.0000000000,14.0000000000,155.0000000000,538.0000000000,227.0000000000,16.0000000000
1717675299023,45.0000000000,14.0000000000,154.0000000000,532.0000000000,226.0000000000,15.0000000000
1717675299023,45.0000000000,14.0000000000,153.0000000000,527.0000000000,254.0000000000,16.0000000000
1717675299023,45.0000000000,14.0000000000,152.0000000000,546.0000000000,252.0000000000,16.0000000000
1717675299024,44.0000000000,14.0000000000,152.0000000000,628.0000000000,249.0000000000,16.0000000000
1717675299024,44.0000000000,13.0000000000,151.0000000000,620.0000000000,248.0000000000,15.0000000000
1717675299024,44.0000000000,13.0000000000,150.0000000000,614.0000000000,246.0000000000,15.0000000000
1717675299038,44.0000000000,14.0000000000,148.0000000000,608.0000000000,243.0000000000,15.0000000000
1717675299041,43.0000000000,13.0000000000,147.0000000000,601.0000000000,242.0000000000,16.0000000000
1717675299041,43.0000000000,13.0000000000,147.0000000000,595.0000000000,241.0000000000,15.0000000000
1717675299042,43.0000000000,13.0000000000,146.0000000000,589.0000000000,239.0000000000,15.0000000000
1717675299042,43.0000000000,13.0000000000,145.0000000000,583.0000000000,238.0000000000,15.0000000000
1717675299042,42.0000000000,13.0000000000,143.0000000000,578.0000000000,236.0000000000,15.0000000000
1717675299042,41.0000000000,13.0000000000,143.0000000000,572.0000000000,235.0000000000,15.0000000000
1717675299042,41.0000000000,13.0000000000,143.0000000000,566.0000000000,232.0000000000,15.0000000000
1717675299042,41.0000000000,12.0000000000,142.0000000000,562.0000000000,231.0000000000,15.0000000000
1717675299063,41.0000000000,13.0000000000,140.0000000000,556.0000000000,230.0000000000,15.0000000000
1717675299064,40.0000000000,12.0000000000,140.0000000000,551.0000000000,228.0000000000,15.0000000000
1717675299064,39.0000000000,12.0000000000,140.0000000000,545.0000000000,227.0000000000,15.0000000000
1717675299064,40.0000000000,12.0000000000,138.0000000000,540.0000000000,225.0000000000,15.0000000000
1717675299064,39.0000000000,12.0000000000,137.0000000000,536.0000000000,224.0000000000,14.0000000000
1717675299064,39.0000000000,12.0000000000,136.0000000000,531.0000000000,223.0000000000,14.0000000000
1717675299065,39.0000000000,12.0000000000,135.0000000000,526.0000000000,222.0000000000,14.0000000000
1717675299065,39.0000000000,12.0000000000,135.0000000000,521.0000000000,220.0000000000,14.0000000000
1717675299065,39.0000000000,12.0000000000,135.0000000000,518.0000000000,220.0000000000,14.0000000000
1717675299065,39.0000000000,12.0000000000,134.0000000000,512.0000000000,217.0000000000,14.0000000000
1717675299065,39.0000000000,12.0000000000,133.0000000000,508.0000000000,216.0000000000,14.0000000000
1717675299066,38.0000000000,12.0000000000,132.0000000000,577.0000000000,216.0000000000,14.0000000000
1717675299066,38.0000000000,11.0000000000,131.0000000000,572.0000000000,214.0000000000,13.0000000000
1717675299088,38.0000000000,12.0000000000,131.0000000000,566.0000000000,213.0000000000,14.0000000000
1717675299090,38.0000000000,12.0000000000,130.0000000000,560.0000000000,211.0000000000,13.0000000000
1717675299090,37.0000000000,12.0000000000,129.0000000000,554.0000000000,211.0000000000,13.0000000000
1717675299090,37.0000000000,12.0000000000,128.0000000000,550.0000000000,209.0000000000,13.0000000000
1717675299090,37.0000000000,11.0000000000,127.0000000000,544.0000000000,208.0000000000,13.0000000000
1717675299090,36.0000000000,11.0000000000,127.0000000000,539.0000000000,207.0000000000,13.0000000000
1717675299090,36.0000000000,11.0000000000,126.0000000000,534.0000000000,206.0000000000,13.0000000000
1717675299091,35.0000000000,11.0000000000,126.0000000000,529.0000000000,204.0000000000,12.0000000000
1717675299091,35.0000000000,11.0000000000,124.0000000000,524.0000000000,204.0000000000,14.0000000000
1717675299091,35.0000000000,11.0000000000,124.0000000000,519.0000000000,203.0000000000,14.0000000000
1717675299091,35.0000000000,11.0000000000,124.0000000000,513.0000000000,201.0000000000,14.0000000000
1717675299091,35.0000000000,11.0000000000,123.0000000000,510.0000000000,199.0000000000,14.0000000000
1717675299091,35.0000000000,11.0000000000,122.0000000000,508.0000000000,199.0000000000,14.0000000000
1717675299106,35.0000000000,11.0000000000,121.0000000000,521.0000000000,198.0000000000,14.0000000000
1717675299108,35.0000000000,11.0000000000,120.0000000000,598.0000000000,197.0000000000,14.0000000000
1717675299108,34.0000000000,10.0000000000,120.0000000000,592.0000000000,196.0000000000,14.0000000000
1717675299108,34.0000000000,11.0000000000,119.0000000000,585.0000000000,195.0000000000,13.0000000000
1717675299108,34.0000000000,10.0000000000,118.0000000000,579.0000000000,194.0000000000,13.0000000000
1717675299108,34.0000000000,10.0000000000,118.0000000000,572.0000000000,192.0000000000,13.0000000000
1717675299108,34.0000000000,10.0000000000,118.0000000000,567.0000000000,192.0000000000,13.0000000000
1717675299108,33.0000000000,9.0000000000,116.0000000000,563.0000000000,191.0000000000,13.0000000000
1717675299108,33.0000000000,10.0000000000,116.0000000000,670.0000000000,190.0000000000,13.0000000000
1717675299122,33.0000000000,10.0000000000,115.0000000000,660.0000000000,189.0000000000,12.0000000000
1717675299123,33.0000000000,9.0000000000,115.0000000000,654.0000000000,188.0000000000,12.0000000000
1717675299123,32.0000000000,9.0000000000,114.0000000000,647.0000000000,187.0000000000,12.0000000000
1717675299124,32.0000000000,16.0000000000,135.0000000000,639.0000000000,186.0000000000,12.0000000000
1717675299124,31.0000000000,19.0000000000,135.0000000000,634.0000000000,184.0000000000,12.0000000000
1717675299124,31.0000000000,19.0000000000,135.0000000000,627.0000000000,184.0000000000,12.0000000000
1717675299124,31.0000000000,19.0000000000,134.0000000000,620.0000000000,183.0000000000,12.0000000000
1717675299125,31.0000000000,19.0000000000,134.0000000000,612.0000000000,182.0000000000,12.0000000000
1717675299125,31.0000000000,19.0000000000,132.0000000000,608.0000000000,180.0000000000,12.0000000000
1717675299142,31.0000000000,19.0000000000,131.0000000000,601.0000000000,179.0000000000,12.0000000000
1717675299143,31.0000000000,19.0000000000,131.0000000000,595.0000000000,179.0000000000,12.0000000000
1717675299143,31.0000000000,19.0000000000,130.0000000000,589.0000000000,177.0000000000,12.0000000000
1717675299143,31.0000000000,19.0000000000,129.0000000000,585.0000000000,177.0000000000,12.0000000000
1717675299144,31.0000000000,19.0000000000,127.0000000000,705.0000000000,224.0000000000,12.0000000000
1717675299144,30.0000000000,19.0000000000,127.0000000000,761.0000000000,223.0000000000,11.0000000000
1717675299144,30.0000000000,19.0000000000,127.0000000000,751.0000000000,221.0000000000,12.0000000000
1717675299145,30.0000000000,19.0000000000,126.0000000000,743.0000000000,219.0000000000,12.0000000000
1717675299145,30.0000000000,19.0000000000,126.0000000000,734.0000000000,217.0000000000,12.0000000000
1717675299145,30.0000000000,19.0000000000,124.0000000000,724.0000000000,216.0000000000,12.0000000000
1717675299145,29.0000000000,19.0000000000,124.0000000000,716.0000000000,215.0000000000,11.0000000000
1717675299238,29.0000000000,19.0000000000,123.0000000000,708.0000000000,214.0000000000,11.0000000000
1717675299239,29.0000000000,18.0000000000,123.0000000000,700.0000000000,211.0000000000,11.0000000000
1717675299239,29.0000000000,18.0000000000,121.0000000000,692.0000000000,211.0000000000,11.0000000000
1717675299240,29.0000000000,18.0000000000,121.0000000000,777.0000000000,209.0000000000,11.0000000000
1717675299240,28.0000000000,38.0000000000,120.0000000000,768.0000000000,207.0000000000,11.0000000000
1717675299240,28.0000000000,37.0000000000,120.0000000000,758.0000000000,207.0000000000,10.0000000000
1717675299240,28.0000000000,36.0000000000,119.0000000000,748.0000000000,205.0000000000,11.0000000000
1717675299241,28.0000000000,35.0000000000,118.0000000000,738.0000000000,204.0000000000,11.0000000000
1717675299241,28.0000000000,35.0000000000,118.0000000000,729.0000000000,203.0000000000,10.0000000000
1717675299241,28.0000000000,35.0000000000,116.0000000000,722.0000000000,201.0000000000,10.0000000000
1717675299241,27.0000000000,35.0000000000,116.0000000000,713.0000000000,199.0000000000,10.0000000000
1717675299241,28.0000000000,35.0000000000,115.0000000000,705.0000000000,199.0000000000,10.0000000000
1717675299241,27.0000000000,34.0000000000,115.0000000000,696.0000000000,197.0000000000,9.0000000000
1717675299241,27.0000000000,34.0000000000,113.0000000000,691.0000000000,195.0000000000,10.0000000000
1717675299242,27.0000000000,34.0000000000,113.0000000000,683.0000000000,195.0000000000,9.0000000000
1717675299242,27.0000000000,34.0000000000,112.0000000000,676.0000000000,194.0000000000,10.0000000000
1717675299242,27.0000000000,34.0000000000,112.0000000000,669.0000000000,192.0000000000,10.0000000000
1717675299242,26.0000000000,33.0000000000,111.0000000000,662.0000000000,192.0000000000,9.0000000000
1717675299242,26.0000000000,33.0000000000,111.0000000000,655.0000000000,191.0000000000,9.0000000000
1717675299242,26.0000000000,33.0000000000,110.0000000000,649.0000000000,190.0000000000,9.0000000000
1717675299242,25.0000000000,33.0000000000,110.0000000000,642.0000000000,188.0000000000,13.0000000000
1717675299243,51.0000000000,32.0000000000,109.0000000000,635.0000000000,187.0000000000,15.0000000000
1717675299243,52.0000000000,31.0000000000,108.0000000000,631.0000000000,186.0000000000,15.0000000000
1717675299243,52.0000000000,31.0000000000,108.0000000000,624.0000000000,184.0000000000,15.0000000000
1717675299243,52.0000000000,31.0000000000,108.0000000000,617.0000000000,184.0000000000,15.0000000000
1717675299243,51.0000000000,31.0000000000,107.0000000000,611.0000000000,183.0000000000,15.0000000000
1717675299243,51.0000000000,31.0000000000,106.0000000000,607.0000000000,182.0000000000,15.0000000000
1717675299244,51.0000000000,31.0000000000,105.0000000000,600.0000000000,214.0000000000,15.0000000000
1717675299244,51.0000000000,31.0000000000,106.0000000000,594.0000000000,211.0000000000,15.0000000000
1717675299244,49.0000000000,31.0000000000,105.0000000000,638.0000000000,210.0000000000,41.0000000000
1717675299244,50.0000000000,31.0000000000,151.0000000000,771.0000000000,233.0000000000,40.0000000000
1717675299245,49.0000000000,30.0000000000,150.0000000000,760.0000000000,231.0000000000,39.0000000000
1717675299245,49.0000000000,30.0000000000,148.0000000000,750.0000000000,230.0000000000,39.0000000000
1717675299245,48.0000000000,30.0000000000,147.0000000000,740.0000000000,228.0000000000,39.0000000000
1717675299246,48.0000000000,30.0000000000,147.0000000000,733.0000000000,226.0000000000,39.0000000000
1717675299246,48.0000000000,29.0000000000,145.0000000000,724.0000000000,224.0000000000,39.0000000000
1717675299246,48.0000000000,29.0000000000,145.0000000000,716.0000000000,224.0000000000,39.0000000000
1717675299246,47.0000000000,29.0000000000,143.0000000000,707.0000000000,222.0000000000,38.0000000000
1717675299247,47.0000000000,29.0000000000,143.0000000000,700.0000000000,220.0000000000,38.0000000000
1717675299247,46.0000000000,29.0000000000,142.0000000000,692.0000000000,219.0000000000,37.0000000000
1717675299247,47.0000000000,28.0000000000,141.0000000000,684.0000000000,217.0000000000,37.0000000000
1717675299248,46.0000000000,28.0000000000,140.0000000000,676.0000000000,216.0000000000,36.0000000000
1717675299248,46.0000000000,28.0000000000,140.0000000000,670.0000000000,215.0000000000,36.0000000000
1717675299248,47.0000000000,28.0000000000,138.0000000000,664.0000000000,213.0000000000,36.0000000000
1717675299248,46.0000000000,27.0000000000,137.0000000000,655.0000000000,211.0000000000,36.0000000000
1717675299249,47.0000000000,27.0000000000,136.0000000000,648.0000000000,211.0000000000,35.0000000000
1717675299249,46.0000000000,27.0000000000,135.0000000000,641.0000000000,209.0000000000,35.0000000000
1717675299249,46.0000000000,27.0000000000,135.0000000000,637.0000000000,207.0000000000,35.0000000000
1717675299249,46.0000000000,27.0000000000,134.0000000000,630.0000000000,207.0000000000,35.0000000000
1717675299249,45.0000000000,27.0000000000,134.0000000000,623.0000000000,205.0000000000,35.0000000000
1717675299250,45.0000000000,27.0000000000,132.0000000000,615.0000000000,204.0000000000,35.0000000000
1717675299250,44.0000000000,27.0000000000,131.0000000000,611.0000000000,202.0000000000,35.0000000000
1717675299250,44.0000000000,26.0000000000,131.0000000000,605.0000000000,201.0000000000,34.0000000000
1717675299250,44.0000000000,26.0000000000,130.0000000000,600.0000000000,199.0000000000,34.0000000000
1717675299251,44.0000000000,26.0000000000,129.0000000000,777.0000000000,289.0000000000,37.0000000000
1717675299251,47.0000000000,25.0000000000,128.0000000000,768.0000000000,287.0000000000,36.0000000000
1717675299251,46.0000000000,25.0000000000,127.0000000000,758.0000000000,284.0000000000,36.0000000000
1717675299287,46.0000000000,25.0000000000,127.0000000000,748.0000000000,282.0000000000,36.0000000000
1717675299288,46.0000000000,25.0000000000,126.0000000000,739.0000000000,280.0000000000,36.0000000000
1717675299288,46.0000000000,25.0000000000,126.0000000000,732.0000000000,278.0000000000,35.0000000000
1717675299289,45.0000000000,24.0000000000,124.0000000000,721.0000000000,275.0000000000,35.0000000000
1717675299289,45.0000000000,24.0000000000,124.0000000000,713.0000000000,274.0000000000,35.0000000000
1717675299289,44.0000000000,24.0000000000,124.0000000000,704.0000000000,271.0000000000,35.0000000000
1717675299289,44.0000000000,24.0000000000,123.0000000000,699.0000000000,270.0000000000,35.0000000000
1717675299290,47.0000000000,24.0000000000,177.0000000000,691.0000000000,268.0000000000,35.0000000000
1717675299290,52.0000000000,24.0000000000,179.0000000000,681.0000000000,267.0000000000,34.0000000000
1717675299290,51.0000000000,24.0000000000,177.0000000000,674.0000000000,265.0000000000,33.0000000000
1717675299290,51.0000000000,24.0000000000,176.0000000000,668.0000000000,263.0000000000,33.0000000000
1717675299291,51.0000000000,23.0000000000,176.0000000000,662.0000000000,261.0000000000,33.0000000000
1717675299291,51.0000000000,24.0000000000,175.0000000000,655.0000000000,259.0000000000,33.0000000000
1717675299291,51.0000000000,24.0000000000,173.0000000000,647.0000000000,258.0000000000,32.0000000000
1717675299292,50.0000000000,23.0000000000,172.0000000000,641.0000000000,255.0000000000,33.0000000000
1717675299292,50.0000000000,24.0000000000,182.0000000000,635.0000000000,255.0000000000,33.0000000000
1717675299292,49.0000000000,23.0000000000,179.0000000000,627.0000000000,253.0000000000,32.0000000000
1717675299292,49.0000000000,23.0000000000,179.0000000000,621.0000000000,252.0000000000,32.0000000000
1717675299293,48.0000000000,23.0000000000,178.0000000000,615.0000000000,250.0000000000,31.0000000000
1717675299293,48.0000000000,23.0000000000,176.0000000000,610.0000000000,248.0000000000,31.0000000000
1717675299293,48.0000000000,22.0000000000,175.0000000000,604.0000000000,246.0000000000,31.0000000000
1717675299293,47.0000000000,22.0000000000,175.0000000000,598.0000000000,245.0000000000,31.0000000000
1717675299294,47.0000000000,22.0000000000,173.0000000000,591.0000000000,243.0000000000,31.0000000000
1717675299294,47.0000000000,22.0000000000,172.0000000000,588.0000000000,241.0000000000,31.0000000000
1717675299315,46.0000000000,22.0000000000,171.0000000000,582.0000000000,240.0000000000,31.0000000000
1717675299316,46.0000000000,22.0000000000,169.0000000000,575.0000000000,239.0000000000,31.0000000000
1717675299316,46.0000000000,22.0000000000,169.0000000000,571.0000000000,238.0000000000,30.0000000000
1717675299316,46.0000000000,21.0000000000,167.0000000000,566.0000000000,236.0000000000,30.0000000000
1717675299317,45.0000000000,21.0000000000,167.0000000000,560.0000000000,235.0000000000,30.0000000000
1717675299317,45.0000000000,21.0000000000,166.0000000000,556.0000000000,233.0000000000,30.0000000000
1717675299317,45.0000000000,20.0000000000,164.0000000000,551.0000000000,231.0000000000,30.0000000000
1717675299317,44.0000000000,20.0000000000,163.0000000000,547.0000000000,231.0000000000,29.0000000000
1717675299317,44.0000000000,19.0000000000,163.0000000000,542.0000000000,228.0000000000,30.0000000000
1717675299318,44.0000000000,20.0000000000,162.0000000000,536.0000000000,227.0000000000,29.0000000000
1717675299318,43.0000000000,20.0000000000,160.0000000000,532.0000000000,226.0000000000,29.0000000000
1717675299334,43.0000000000,20.0000000000,159.0000000000,528.0000000000,270.0000000000,28.0000000000
1717675299335,43.0000000000,19.0000000000,159.0000000000,524.0000000000,268.0000000000,28.0000000000
1717675299335,43.0000000000,20.0000000000,158.0000000000,519.0000000000,267.0000000000,28.0000000000
1717675299335,42.0000000000,19.0000000000,157.0000000000,514.0000000000,263.0000000000,28.0000000000
1717675299335,41.0000000000,19.0000000000,156.0000000000,511.0000000000,263.0000000000,28.0000000000
1717675299335,41.0000000000,19.0000000000,155.0000000000,506.0000000000,260.0000000000,28.0000000000
1717675299336,41.0000000000,19.0000000000,154.0000000000,502.0000000000,259.0000000000,28.0000000000
1717675299336,41.0000000000,19.0000000000,153.0000000000,497.0000000000,257.0000000000,27.0000000000
1717675299336,41.0000000000,19.0000000000,152.0000000000,494.0000000000,255.0000000000,27.0000000000
1717675299336,40.0000000000,19.0000000000,152.0000000000,491.0000000000,254.0000000000,27.0000000000
1717675299336,39.0000000000,19.0000000000,150.0000000000,487.0000000000,252.0000000000,27.0000000000
1717675299354,39.0000000000,19.0000000000,150.0000000000,483.0000000000,250.0000000000,27.0000000000
1717675299355,39.0000000000,19.0000000000,149.0000000000,642.0000000000,338.0000000000,27.0000000000
1717675299355,39.0000000000,18.0000000000,147.0000000000,635.0000000000,333.0000000000,26.0000000000
1717675299355,39.0000000000,19.0000000000,147.0000000000,627.0000000000,331.0000000000,27.0000000000
1717675299356,39.0000000000,18.0000000000,146.0000000000,620.0000000000,327.0000000000,25.0000000000
1717675299356,39.0000000000,18.0000000000,145.0000000000,612.0000000000,325.0000000000,26.0000000000
1717675299356,39.0000000000,18.0000000000,143.0000000000,607.0000000000,323.0000000000,25.0000000000
1717675299356,39.0000000000,18.0000000000,143.0000000000,600.0000000000,319.0000000000,25.0000000000
1717675299357,39.0000000000,17.0000000000,143.0000000000,594.0000000000,319.0000000000,25.0000000000
1717675299357,39.0000000000,17.0000000000,142.0000000000,588.0000000000,342.0000000000,25.0000000000
1717675299357,39.0000000000,17.0000000000,141.0000000000,583.0000000000,339.0000000000,24.0000000000
1717675299376,39.0000000000,17.0000000000,140.0000000000,679.0000000000,336.0000000000,25.0000000000
1717675299377,38.0000000000,17.0000000000,140.0000000000,670.0000000000,335.0000000000,25.0000000000
1717675299377,38.0000000000,17.0000000000,139.0000000000,662.0000000000,332.0000000000,24.0000000000
1717675299378,38.0000000000,17.0000000000,137.0000000000,655.0000000000,328.0000000000,24.0000000000
1717675299378,38.0000000000,16.0000000000,137.0000000000,648.0000000000,327.0000000000,24.0000000000
1717675299378,37.0000000000,16.0000000000,135.0000000000,639.0000000000,324.0000000000,24.0000000000
1717675299378,37.0000000000,16.0000000000,135.0000000000,657.0000000000,323.0000000000,24.0000000000
1717675299378,36.0000000000,16.0000000000,135.0000000000,651.0000000000,319.0000000000,24.0000000000
1717675299378,36.0000000000,16.0000000000,134.0000000000,643.0000000000,318.0000000000,24.0000000000
1717675299378,36.0000000000,15.0000000000,133.0000000000,636.0000000000,316.0000000000,24.0000000000
1717675299379,36.0000000000,15.0000000000,132.0000000000,628.0000000000,313.0000000000,24.0000000000
1717675299397,36.0000000000,16.0000000000,131.0000000000,623.0000000000,312.0000000000,23.0000000000
1717675299398,35.0000000000,16.0000000000,131.0000000000,616.0000000000,309.0000000000,23.0000000000
1717675299398,35.0000000000,23.0000000000,131.0000000000,609.0000000000,307.0000000000,23.0000000000
1717675299398,35.0000000000,23.0000000000,129.0000000000,604.0000000000,305.0000000000,23.0000000000
1717675299398,35.0000000000,23.0000000000,129.0000000000,599.0000000000,303.0000000000,22.0000000000
1717675299399,35.0000000000,23.0000000000,127.0000000000,591.0000000000,301.0000000000,22.0000000000
1717675299399,34.0000000000,22.0000000000,127.0000000000,587.0000000000,299.0000000000,22.0000000000
1717675299399,34.0000000000,22.0000000000,127.0000000000,580.0000000000,297.0000000000,22.0000000000
1717675299399,34.0000000000,22.0000000000,126.0000000000,575.0000000000,295.0000000000,22.0000000000
1717675299399,34.0000000000,22.0000000000,125.0000000000,571.0000000000,292.0000000000,22.0000000000
1717675299400,33.0000000000,22.0000000000,124.0000000000,564.0000000000,291.0000000000,22.0000000000
1717675299400,33.0000000000,22.0000000000,124.0000000000,559.0000000000,289.0000000000,22.0000000000
1717675299400,33.0000000000,22.0000000000,124.0000000000,553.0000000000,287.0000000000,21.0000000000
1717675299414,33.0000000000,22.0000000000,122.0000000000,550.0000000000,285.0000000000,21.0000000000
1717675299415,33.0000000000,22.0000000000,121.0000000000,543.0000000000,284.0000000000,21.0000000000
1717675299415,33.0000000000,20.0000000000,121.0000000000,539.0000000000,281.0000000000,21.0000000000
1717675299415,31.0000000000,20.0000000000,120.0000000000,534.0000000000,280.0000000000,21.0000000000
1717675299415,31.0000000000,20.0000000000,120.0000000000,530.0000000000,279.0000000000,20.0000000000
1717675299415,31.0000000000,20.0000000000,119.0000000000,526.0000000000,276.0000000000,20.0000000000
1717675299435,31.0000000000,20.0000000000,119.0000000000,519.0000000000,275.0000000000,20.0000000000
1717675299436,31.0000000000,20.0000000000,118.0000000000,515.0000000000,273.0000000000,20.0000000000
1717675299436,31.0000000000,19.0000000000,117.0000000000,512.0000000000,271.0000000000,19.0000000000
1717675299436,31.0000000000,19.0000000000,116.0000000000,508.0000000000,270.0000000000,19.0000000000
1717675299436,31.0000000000,19.0000000000,116.0000000000,503.0000000000,268.0000000000,20.0000000000
1717675299436,31.0000000000,19.0000000000,115.0000000000,499.0000000000,267.0000000000,19.0000000000
1717675299437,31.0000000000,19.0000000000,115.0000000000,495.0000000000,263.0000000000,19.0000000000
1717675299437,31.0000000000,19.0000000000,114.0000000000,491.0000000000,263.0000000000,19.0000000000
1717675299438,31.0000000000,19.0000000000,113.0000000000,487.0000000000,262.0000000000,19.0000000000
1717675299438,31.0000000000,19.0000000000,112.0000000000,482.0000000000,260.0000000000,19.0000000000
1717675299438,31.0000000000,19.0000000000,112.0000000000,480.0000000000,259.0000000000,19.0000000000
1717675299438,31.0000000000,18.0000000000,112.0000000000,476.0000000000,256.0000000000,19.0000000000
1717675299439,31.0000000000,19.0000000000,111.0000000000,472.0000000000,255.0000000000,19.0000000000
1717675299439,31.0000000000,19.0000000000,110.0000000000,467.0000000000,254.0000000000,18.0000000000
1717675299456,30.0000000000,18.0000000000,110.0000000000,464.0000000000,252.0000000000,19.0000000000
1717675299458,30.0000000000,19.0000000000,108.0000000000,460.0000000000,251.0000000000,18.0000000000
1717675299458,30.0000000000,18.0000000000,108.0000000000,457.0000000000,249.0000000000,18.0000000000
1717675299458,30.0000000000,18.0000000000,108.0000000000,454.0000000000,248.0000000000,18.0000000000
1717675299458,29.0000000000,18.0000000000,107.0000000000,450.0000000000,247.0000000000,17.0000000000
1717675299459,29.0000000000,18.0000000000,107.0000000000,448.0000000000,244.0000000000,18.0000000000
1717675299459,29.0000000000,18.0000000000,106.0000000000,444.0000000000,243.0000000000,18.0000000000
1717675299459,29.0000000000,17.0000000000,105.0000000000,440.0000000000,242.0000000000,17.0000000000
1717675299460,29.0000000000,17.0000000000,105.0000000000,436.0000000000,240.0000000000,17.0000000000
1717675299460,29.0000000000,17.0000000000,103.0000000000,435.0000000000,239.0000000000,17.0000000000
1717675299460,28.0000000000,17.0000000000,103.0000000000,431.0000000000,238.0000000000,17.0000000000
1717675299484,28.0000000000,17.0000000000,103.0000000000,428.0000000000,236.0000000000,17.0000000000
1717675299488,28.0000000000,17.0000000000,135.0000000000,423.0000000000,236.0000000000,17.0000000000
1717675299488,28.0000000000,17.0000000000,132.0000000000,422.0000000000,233.0000000000,17.0000000000
1717675299489,28.0000000000,16.0000000000,131.0000000000,419.0000000000,231.0000000000,17.0000000000
1717675299489,28.0000000000,16.0000000000,131.0000000000,415.0000000000,231.0000000000,17.0000000000
1717675299490,27.0000000000,17.0000000000,130.0000000000,412.0000000000,230.0000000000,17.0000000000
1717675299490,27.0000000000,16.0000000000,129.0000000000,410.0000000000,228.0000000000,16.0000000000
1717675299490,27.0000000000,16.0000000000,127.0000000000,407.0000000000,227.0000000000,16.0000000000
1717675299490,27.0000000000,15.0000000000,127.0000000000,403.0000000000,241.0000000000,15.0000000000
1717675299491,26.0000000000,15.0000000000,127.0000000000,400.0000000000,273.0000000000,16.0000000000
1717675299491,27.0000000000,15.0000000000,126.0000000000,398.0000000000,271.0000000000,16.0000000000
1717675299491,27.0000000000,16.0000000000,125.0000000000,396.0000000000,268.0000000000,15.0000000000
1717675299491,26.0000000000,15.0000000000,125.0000000000,392.0000000000,267.0000000000,15.0000000000
1717675299492,27.0000000000,15.0000000000,124.0000000000,390.0000000000,265.0000000000,15.0000000000
1717675299492,26.0000000000,15.0000000000,124.0000000000,387.0000000000,263.0000000000,15.0000000000
1717675299492,27.0000000000,15.0000000000,123.0000000000,385.0000000000,262.0000000000,15.0000000000
1717675299492,26.0000000000,15.0000000000,121.0000000000,382.0000000000,260.0000000000,15.0000000000
1717675299516,26.0000000000,15.0000000000,120.0000000000,380.0000000000,258.0000000000,15.0000000000
1717675299517,26.0000000000,15.0000000000,120.0000000000,377.0000000000,255.0000000000,15.0000000000
1717675299517,25.0000000000,15.0000000000,119.0000000000,376.0000000000,254.0000000000,15.0000000000
1717675299518,25.0000000000,15.0000000000,119.0000000000,372.0000000000,253.0000000000,15.0000000000
1717675299518,25.0000000000,15.0000000000,118.0000000000,370.0000000000,252.0000000000,15.0000000000
1717675299518,25.0000000000,15.0000000000,116.0000000000,368.0000000000,249.0000000000,15.0000000000
1717675299518,25.0000000000,14.0000000000,116.0000000000,366.0000000000,248.0000000000,15.0000000000
1717675299519,25.0000000000,14.0000000000,115.0000000000,363.0000000000,247.0000000000,14.0000000000
1717675299519,25.0000000000,14.0000000000,115.0000000000,359.0000000000,245.0000000000,14.0000000000
1717675299519,24.0000000000,15.0000000000,114.0000000000,358.0000000000,243.0000000000,14.0000000000
1717675299519,25.0000000000,14.0000000000,113.0000000000,356.0000000000,241.0000000000,15.0000000000
1717675299519,24.0000000000,14.0000000000,113.0000000000,354.0000000000,240.0000000000,14.0000000000
1717675299519,24.0000000000,14.0000000000,112.0000000000,352.0000000000,239.0000000000,14.0000000000
1717675299520,24.0000000000,14.0000000000,111.0000000000,350.0000000000,237.0000000000,14.0000000000
1717675299520,24.0000000000,14.0000000000,111.0000000000,348.0000000000,236.0000000000,14.0000000000
1717675299538,24.0000000000,14.0000000000,110.0000000000,344.0000000000,234.0000000000,14.0000000000
1717675299538,24.0000000000,14.0000000000,110.0000000000,417.0000000000,232.0000000000,14.0000000000
1717675299538,24.0000000000,14.0000000000,109.0000000000,412.0000000000,231.0000000000,13.0000000000
1717675299538,24.0000000000,13.0000000000,108.0000000000,409.0000000000,230.0000000000,14.0000000000
1717675299538,24.0000000000,14.0000000000,108.0000000000,406.0000000000,228.0000000000,14.0000000000
1717675299539,24.0000000000,13.0000000000,107.0000000000,406.0000000000,227.0000000000,13.0000000000
1717675299539,24.0000000000,14.0000000000,152.0000000000,401.0000000000,225.0000000000,13.0000000000
1717675299539,23.0000000000,15.0000000000,151.0000000000,399.0000000000,224.0000000000,13.0000000000
1717675299539,23.0000000000,15.0000000000,150.0000000000,395.0000000000,223.0000000000,13.0000000000
