timestamp,Channel 1,Channel 2,Channel 3,Channel 4,Channel 5,Channel 6
1717675320226,7.0000000000,0.0000000000,0.0000000000,12.0000000000,31.0000000000,1.0000000000
1717675320227,7.0000000000,0.0000000000,0.0000000000,11.0000000000,31.0000000000,0.0000000000
1717675320228,7.0000000000,0.0000000000,0.0000000000,11.0000000000,31.0000000000,0.0000000000
1717675320228,7.0000000000,0.0000000000,0.0000000000,11.0000000000,30.0000000000,0.0000000000
1717675320228,7.0000000000,0.0000000000,0.0000000000,11.0000000000,31.0000000000,0.0000000000
1717675320228,7.0000000000,0.0000000000,0.0000000000,11.0000000000,30.0000000000,1.0000000000
1717675320228,7.0000000000,0.0000000000,0.0000000000,11.0000000000,30.0000000000,0.0000000000
1717675320228,7.0000000000,0.0000000000,0.0000000000,11.0000000000,30.0000000000,1.0000000000
1717675320228,7.0000000000,0.0000000000,0.0000000000,11.0000000000,30.0000000000,0.0000000000
1717675320229,7.0000000000,0.0000000000,0.0000000000,11.0000000000,30.0000000000,0.0000000000
1717675320229,7.0000000000,0.0000000000,0.0000000000,11.0000000000,30.0000000000,0.0000000000
1717675320229,7.0000000000,0.0000000000,0.0000000000,11.0000000000,48.0000000000,0.0000000000
1717675320229,7.0000000000,0.0000000000,0.0000000000,11.0000000000,55.0000000000,0.0000000000
1717675320229,7.0000000000,0.0000000000,0.0000000000,10.0000000000,54.0000000000,0.0000000000
1717675320229,7.0000000000,0.0000000000,0.0000000000,10.0000000000,53.0000000000,0.0000000000
1717675320229,7.0000000000,0.0000000000,0.0000000000,11.0000000000,52.0000000000,1.0000000000
1717675320230,7.0000000000,0.0000000000,0.0000000000,10.0000000000,53.0000000000,0.0000000000
1717675320230,7.0000000000,0.0000000000,0.0000000000,10.0000000000,52.0000000000,0.0000000000
1717675320230,7.0000000000,0.0000000000,0.0000000000,11.0000000000,52.0000000000,0.0000000000
1717675320246,7.0000000000,0.0000000000,0.0000000000,11.0000000000,52.0000000000,0.0000000000
1717675320247,7.0000000000,0.0000000000,0.0000000000,9.0000000000,52.0000000000,0.0000000000
1717675320247,7.0000000000,0.0000000000,0.0000000000,10.0000000000,51.0000000000,0.0000000000
1717675320247,7.0000000000,0.0000000000,0.0000000000,9.0000000000,51.0000000000,0.0000000000
1717675320247,7.0000000000,0.0000000000,0.0000000000,10.0000000000,51.0000000000,1.0000000000
1717675320247,7.0000000000,0.0000000000,0.0000000000,10.0000000000,51.0000000000,0.0000000000
1717675320247,7.0000000000,0.0000000000,0.0000000000,10.0000000000,51.0000000000,1.0000000000
1717675320247,7.0000000000,0.0000000000,0.0000000000,9.0000000000,50.0000000000,0.0000000000
1717675320248,7.0000000000,0.0000000000,0.0000000000,10.0000000000,50.0000000000,0.0000000000
1717675320248,7.0000000000,0.0000000000,0.0000000000,10.0000000000,50.0000000000,0.0000000000
1717675320248,7.0000000000,0.0000000000,0.0000000000,9.0000000000,49.0000000000,0.0000000000
1717675320248,7.0000000000,0.0000000000,0.0000000000,10.0000000000,49.0000000000,0.0000000000
1717675320249,7.0000000000,0.0000000000,0.0000000000,10.0000000000,49.0000000000,0.0000000000
1717675320249,7.0000000000,0.0000000000,0.0000000000,10.0000000000,49.0000000000,0.0000000000
1717675320263,7.0000000000,0.0000000000,0.0000000000,9.0000000000,49.0000000000,0.0000000000
1717675320264,7.0000000000,0.0000000000,0.0000000000,9.0000000000,48.0000000000,0.0000000000
1717675320264,7.0000000000,0.0000000000,0.0000000000,9.0000000000,48.0000000000,0.0000000000
1717675320264,6.0000000000,0.0000000000,0.0000000000,9.0000000000,48.0000000000,0.0000000000
1717675320264,7.0000000000,0.0000000000,0.0000000000,10.0000000000,48.0000000000,0.0000000000
1717675320265,6.0000000000,0.0000000000,0.0000000000,10.0000000000,48.0000000000,0.0000000000
1717675320265,7.0000000000,0.0000000000,0.0000000000,10.0000000000,48.0000000000,0.0000000000
1717675320265,7.0000000000,0.0000000000,0.0000000000,9.0000000000,48.0000000000,0.0000000000
1717675320265,7.0000000000,0.0000000000,0.0000000000,9.0000000000,47.0000000000,0.0000000000
1717675320265,7.0000000000,0.0000000000,0.0000000000,9.0000000000,47.0000000000,0.0000000000
1717675320265,7.0000000000,0.0000000000,0.0000000000,9.0000000000,47.0000000000,0.0000000000
1717675320265,7.0000000000,0.0000000000,0.0000000000,9.0000000000,47.0000000000,0.0000000000
1717675320265,7.0000000000,0.0000000000,0.0000000000,9.0000000000,47.0000000000,0.0000000000
1717675320287,7.0000000000,0.0000000000,0.0000000000,39.0000000000,46.0000000000,0.0000000000
1717675320287,7.0000000000,0.0000000000,0.0000000000,88.0000000000,46.0000000000,0.0000000000
1717675320287,7.0000000000,0.0000000000,0.0000000000,87.0000000000,46.0000000000,0.0000000000
1717675320287,7.0000000000,0.0000000000,0.0000000000,86.0000000000,46.0000000000,0.0000000000
1717675320287,7.0000000000,0.0000000000,0.0000000000,86.0000000000,45.0000000000,0.0000000000
1717675320287,7.0000000000,0.0000000000,0.0000000000,85.0000000000,45.0000000000,0.0000000000
1717675320287,7.0000000000,0.0000000000,0.0000000000,84.0000000000,45.0000000000,0.0000000000
1717675320287,7.0000000000,0.0000000000,0.0000000000,84.0000000000,45.0000000000,0.0000000000
1717675320288,7.0000000000,0.0000000000,0.0000000000,83.0000000000,45.0000000000,0.0000000000
1717675320288,8.0000000000,0.0000000000,0.0000000000,83.0000000000,44.0000000000,0.0000000000
1717675320288,9.0000000000,0.0000000000,0.0000000000,83.0000000000,44.0000000000,0.0000000000
1717675320288,7.0000000000,0.0000000000,0.0000000000,83.0000000000,44.0000000000,0.0000000000
1717675320288,9.0000000000,0.0000000000,0.0000000000,81.0000000000,44.0000000000,0.0000000000
1717675320288,7.0000000000,0.0000000000,0.0000000000,81.0000000000,44.0000000000,0.0000000000
1717675320288,8.0000000000,0.0000000000,0.0000000000,81.0000000000,44.0000000000,0.0000000000
1717675320288,8.0000000000,0.0000000000,0.0000000000,81.0000000000,43.0000000000,0.0000000000
1717675320288,7.0000000000,0.0000000000,0.0000000000,80.0000000000,44.0000000000,0.0000000000
1717675320288,8.0000000000,0.0000000000,0.0000000000,79.0000000000,43.0000000000,0.0000000000
1717675320288,7.0000000000,0.0000000000,0.0000000000,79.0000000000,42.0000000000,0.0000000000
1717675320303,7.0000000000,0.0000000000,0.0000000000,79.0000000000,43.0000000000,0.0000000000
1717675320304,7.0000000000,0.0000000000,0.0000000000,79.0000000000,43.0000000000,0.0000000000
1717675320304,7.0000000000,0.0000000000,0.0000000000,79.0000000000,42.0000000000,0.0000000000
1717675320304,7.0000000000,0.0000000000,0.0000000000,78.0000000000,42.0000000000,0.0000000000
1717675320304,7.0000000000,0.0000000000,0.0000000000,78.0000000000,41.0000000000,0.0000000000
1717675320304,7.0000000000,0.0000000000,0.0000000000,77.0000000000,42.0000000000,0.0000000000
1717675320304,8.0000000000,0.0000000000,0.0000000000,77.0000000000,41.0000000000,0.0000000000
1717675320304,9.0000000000,0.0000000000,0.0000000000,76.0000000000,41.0000000000,0.0000000000
1717675320305,9.0000000000,0.0000000000,0.0000000000,76.0000000000,41.0000000000,0.0000000000
1717675320305,8.0000000000,0.0000000000,0.0000000000,76.0000000000,41.0000000000,0.0000000000
1717675320305,8.0000000000,0.0000000000,0.0000000000,76.0000000000,41.0000000000,0.0000000000
1717675320305,9.0000000000,0.0000000000,0.0000000000,76.0000000000,41.0000000000,0.0000000000
1717675320305,8.0000000000,0.0000000000,0.0000000000,76.0000000000,39.0000000000,0.0000000000
1717675320318,8.0000000000,0.0000000000,0.0000000000,76.0000000000,39.0000000000,0.0000000000
1717675320319,7.0000000000,0.0000000000,0.0000000000,75.0000000000,39.0000000000,0.0000000000
1717675320319,7.0000000000,0.0000000000,0.0000000000,75.0000000000,39.0000000000,0.0000000000
1717675320319,7.0000000000,0.0000000000,0.0000000000,75.0000000000,39.0000000000,0.0000000000
1717675320319,7.0000000000,0.0000000000,0.0000000000,75.0000000000,39.0000000000,0.0000000000
1717675320319,7.0000000000,0.0000000000,0.0000000000,75.0000000000,39.0000000000,0.0000000000
1717675320319,8.0000000000,0.0000000000,0.0000000000,73.0000000000,39.0000000000,0.0000000000
1717675320320,7.0000000000,0.0000000000,0.0000000000,73.0000000000,39.0000000000,0.0000000000
1717675320320,7.0000000000,0.0000000000,0.0000000000,73.0000000000,39.0000000000,0.0000000000
1717675320320,7.0000000000,0.0000000000,0.0000000000,72.0000000000,39.0000000000,0.0000000000
1717675320320,7.0000000000,0.0000000000,0.0000000000,72.0000000000,39.0000000000,0.0000000000
1717675320320,7.0000000000,0.0000000000,0.0000000000,79.0000000000,39.0000000000,0.0000000000
1717675320320,7.0000000000,0.0000000000,0.0000000000,81.0000000000,38.0000000000,0.0000000000
1717675320333,7.0000000000,0.0000000000,0.0000000000,81.0000000000,38.0000000000,0.0000000000
1717675320334,7.0000000000,0.0000000000,0.0000000000,80.0000000000,38.0000000000,0.0000000000
1717675320334,7.0000000000,0.0000000000,0.0000000000,79.0000000000,38.0000000000,0.0000000000
1717675320334,7.0000000000,0.0000000000,0.0000000000,79.0000000000,38.0000000000,0.0000000000
1717675320334,7.0000000000,0.0000000000,0.0000000000,79.0000000000,37.0000000000,0.0000000000
1717675320335,7.0000000000,0.0000000000,0.0000000000,79.0000000000,38.0000000000,0.0000000000
1717675320335,7.0000000000,0.0000000000,0.0000000000,79.0000000000,38.0000000000,0.0000000000
1717675320335,7.0000000000,0.0000000000,0.0000000000,78.0000000000,37.0000000000,0.0000000000
1717675320335,7.0000000000,0.0000000000,0.0000000000,78.0000000000,37.0000000000,0.0000000000
1717675320335,7.0000000000,0.0000000000,0.0000000000,77.0000000000,36.0000000000,0.0000000000
1717675320335,7.0000000000,0.0000000000,0.0000000000,79.0000000000,36.0000000000,0.0000000000
1717675320335,7.0000000000,0.0000000000,0.0000000000,79.0000000000,36.0000000000,0.0000000000
1717675320336,8.0000000000,0.0000000000,0.0000000000,79.0000000000,36.0000000000,0.0000000000
1717675320350,7.0000000000,0.0000000000,0.0000000000,78.0000000000,36.0000000000,0.0000000000
1717675320351,7.0000000000,0.0000000000,0.0000000000,78.0000000000,36.0000000000,0.0000000000
1717675320351,7.0000000000,0.0000000000,0.0000000000,78.0000000000,35.0000000000,0.0000000000
1717675320351,7.0000000000,0.0000000000,0.0000000000,77.0000000000,35.0000000000,0.0000000000
1717675320352,7.0000000000,0.0000000000,0.0000000000,81.0000000000,35.0000000000,0.0000000000
1717675320352,7.0000000000,0.0000000000,0.0000000000,81.0000000000,35.0000000000,0.0000000000
1717675320352,7.0000000000,0.0000000000,0.0000000000,80.0000000000,35.0000000000,0.0000000000
1717675320352,7.0000000000,0.0000000000,0.0000000000,79.0000000000,35.0000000000,0.0000000000
1717675320353,7.0000000000,0.0000000000,0.0000000000,79.0000000000,35.0000000000,0.0000000000
1717675320353,7.0000000000,0.0000000000,0.0000000000,79.0000000000,35.0000000000,0.0000000000
1717675320353,7.0000000000,0.0000000000,0.0000000000,79.0000000000,35.0000000000,0.0000000000
1717675320353,7.0000000000,0.0000000000,0.0000000000,79.0000000000,35.0000000000,0.0000000000
1717675320354,7.0000000000,0.0000000000,0.0000000000,78.0000000000,35.0000000000,0.0000000000
1717675320383,7.0000000000,0.0000000000,0.0000000000,78.0000000000,34.0000000000,0.0000000000
1717675320384,7.0000000000,0.0000000000,0.0000000000,77.0000000000,35.0000000000,0.0000000000
1717675320384,7.0000000000,0.0000000000,0.0000000000,78.0000000000,34.0000000000,0.0000000000
1717675320385,7.0000000000,0.0000000000,0.0000000000,77.0000000000,33.0000000000,0.0000000000
1717675320385,7.0000000000,0.0000000000,0.0000000000,77.0000000000,33.0000000000,0.0000000000
1717675320385,7.0000000000,0.0000000000,0.0000000000,76.0000000000,34.0000000000,0.0000000000
1717675320386,7.0000000000,0.0000000000,0.0000000000,76.0000000000,34.0000000000,0.0000000000
1717675320386,7.0000000000,0.0000000000,0.0000000000,76.0000000000,33.0000000000,0.0000000000
1717675320386,7.0000000000,0.0000000000,0.0000000000,75.0000000000,33.0000000000,0.0000000000
1717675320387,7.0000000000,0.0000000000,0.0000000000,75.0000000000,33.0000000000,0.0000000000
1717675320387,7.0000000000,0.0000000000,0.0000000000,75.0000000000,33.0000000000,0.0000000000
1717675320388,7.0000000000,0.0000000000,0.0000000000,75.0000000000,32.0000000000,0.0000000000
1717675320389,7.0000000000,0.0000000000,0.0000000000,73.0000000000,33.0000000000,0.0000000000
1717675320389,7.0000000000,0.0000000000,0.0000000000,73.0000000000,33.0000000000,0.0000000000
1717675320390,7.0000000000,0.0000000000,0.0000000000,73.0000000000,32.0000000000,0.0000000000
1717675320390,7.0000000000,0.0000000000,0.0000000000,72.0000000000,31.0000000000,0.0000000000
1717675320391,7.0000000000,0.0000000000,0.0000000000,115.0000000000,31.0000000000,0.0000000000
1717675320392,7.0000000000,0.0000000000,0.0000000000,121.0000000000,32.0000000000,0.0000000000
1717675320392,7.0000000000,0.0000000000,0.0000000000,120.0000000000,31.0000000000,0.0000000000
1717675320393,7.0000000000,0.0000000000,0.0000000000,119.0000000000,31.0000000000,0.0000000000
1717675320394,7.0000000000,0.0000000000,0.0000000000,119.0000000000,31.0000000000,0.0000000000
1717675320394,7.0000000000,0.0000000000,0.0000000000,118.0000000000,31.0000000000,0.0000000000
1717675320395,7.0000000000,0.0000000000,0.0000000000,117.0000000000,31.0000000000,0.0000000000
1717675320396,7.0000000000,0.0000000000,0.0000000000,116.0000000000,31.0000000000,0.0000000000
1717675320397,7.0000000000,0.0000000000,0.0000000000,115.0000000000,31.0000000000,0.0000000000
1717675320397,7.0000000000,0.0000000000,0.0000000000,115.0000000000,31.0000000000,0.0000000000
1717675320398,7.0000000000,0.0000000000,0.0000000000,115.0000000000,31.0000000000,0.0000000000
1717675320399,7.0000000000,0.0000000000,0.0000000000,184.0000000000,31.0000000000,0.0000000000
1717675320400,7.0000000000,0.0000000000,0.0000000000,184.0000000000,31.0000000000,0.0000000000
1717675320400,7.0000000000,0.0000000000,0.0000000000,182.0000000000,31.0000000000,0.0000000000
1717675320400,7.0000000000,0.0000000000,0.0000000000,181.0000000000,30.0000000000,0.0000000000
1717675320400,7.0000000000,0.0000000000,0.0000000000,179.0000000000,30.0000000000,0.0000000000
1717675320400,7.0000000000,0.0000000000,0.0000000000,179.0000000000,30.0000000000,0.0000000000
1717675320400,7.0000000000,0.0000000000,0.0000000000,177.0000000000,30.0000000000,0.0000000000
1717675320414,7.0000000000,0.0000000000,0.0000000000,177.0000000000,30.0000000000,0.0000000000
1717675320414,7.0000000000,0.0000000000,0.0000000000,176.0000000000,29.0000000000,0.0000000000
1717675320415,7.0000000000,0.0000000000,0.0000000000,175.0000000000,30.0000000000,0.0000000000
1717675320415,7.0000000000,0.0000000000,0.0000000000,174.0000000000,30.0000000000,0.0000000000
1717675320415,7.0000000000,0.0000000000,0.0000000000,173.0000000000,30.0000000000,0.0000000000
1717675320415,7.0000000000,0.0000000000,0.0000000000,172.0000000000,30.0000000000,0.0000000000
1717675320415,7.0000000000,0.0000000000,0.0000000000,209.0000000000,29.0000000000,0.0000000000
1717675320415,7.0000000000,0.0000000000,0.0000000000,207.0000000000,29.0000000000,0.0000000000
1717675320415,7.0000000000,0.0000000000,0.0000000000,207.0000000000,28.0000000000,0.0000000000
1717675320415,7.0000000000,0.0000000000,3.0000000000,205.0000000000,28.0000000000,0.0000000000
1717675320415,6.0000000000,0.0000000000,11.0000000000,204.0000000000,28.0000000000,0.0000000000
1717675320415,7.0000000000,0.0000000000,11.0000000000,203.0000000000,28.0000000000,0.0000000000
1717675320430,7.0000000000,0.0000000000,11.0000000000,201.0000000000,28.0000000000,0.0000000000
1717675320431,7.0000000000,0.0000000000,11.0000000000,214.0000000000,28.0000000000,0.0000000000
1717675320431,7.0000000000,0.0000000000,11.0000000000,242.0000000000,28.0000000000,0.0000000000
1717675320431,7.0000000000,0.0000000000,11.0000000000,241.0000000000,28.0000000000,0.0000000000
1717675320431,7.0000000000,0.0000000000,10.0000000000,239.0000000000,28.0000000000,0.0000000000
1717675320431,6.0000000000,0.0000000000,12.0000000000,238.0000000000,28.0000000000,0.0000000000
1717675320431,7.0000000000,0.0000000000,12.0000000000,236.0000000000,28.0000000000,0.0000000000
1717675320431,7.0000000000,0.0000000000,12.0000000000,235.0000000000,28.0000000000,0.0000000000
1717675320431,7.0000000000,0.0000000000,12.0000000000,233.0000000000,28.0000000000,0.0000000000
1717675320431,7.0000000000,0.0000000000,11.0000000000,231.0000000000,31.0000000000,0.0000000000
1717675320432,7.0000000000,0.0000000000,12.0000000000,231.0000000000,88.0000000000,0.0000000000
1717675320447,7.0000000000,0.0000000000,11.0000000000,230.0000000000,87.0000000000,0.0000000000
1717675320448,7.0000000000,0.0000000000,11.0000000000,228.0000000000,86.0000000000,0.0000000000
1717675320448,7.0000000000,0.0000000000,12.0000000000,227.0000000000,86.0000000000,0.0000000000
1717675320448,7.0000000000,0.0000000000,12.0000000000,225.0000000000,84.0000000000,0.0000000000
1717675320448,6.0000000000,0.0000000000,12.0000000000,224.0000000000,84.0000000000,0.0000000000
1717675320449,7.0000000000,0.0000000000,11.0000000000,255.0000000000,83.0000000000,0.0000000000
1717675320449,6.0000000000,0.0000000000,11.0000000000,273.0000000000,83.0000000000,0.0000000000
1717675320449,6.0000000000,0.0000000000,11.0000000000,271.0000000000,83.0000000000,0.0000000000
1717675320450,6.0000000000,0.0000000000,61.0000000000,270.0000000000,83.0000000000,0.0000000000
1717675320450,7.0000000000,0.0000000000,110.0000000000,268.0000000000,82.0000000000,0.0000000000
1717675320450,6.0000000000,0.0000000000,108.0000000000,265.0000000000,81.0000000000,0.0000000000
1717675320462,6.0000000000,0.0000000000,108.0000000000,263.0000000000,91.0000000000,0.0000000000
1717675320462,6.0000000000,0.0000000000,107.0000000000,263.0000000000,90.0000000000,0.0000000000
1717675320462,6.0000000000,0.0000000000,106.0000000000,260.0000000000,89.0000000000,0.0000000000
1717675320463,6.0000000000,0.0000000000,105.0000000000,259.0000000000,88.0000000000,0.0000000000
1717675320463,6.0000000000,0.0000000000,104.0000000000,323.0000000000,88.0000000000,0.0000000000
1717675320463,6.0000000000,0.0000000000,103.0000000000,319.0000000000,88.0000000000,0.0000000000
1717675320463,6.0000000000,0.0000000000,103.0000000000,316.0000000000,88.0000000000,0.0000000000
1717675320463,6.0000000000,0.0000000000,103.0000000000,315.0000000000,87.0000000000,0.0000000000
1717675320463,6.0000000000,0.0000000000,103.0000000000,312.0000000000,87.0000000000,0.0000000000
1717675320463,6.0000000000,0.0000000000,102.0000000000,311.0000000000,86.0000000000,0.0000000000
1717675320463,6.0000000000,0.0000000000,102.0000000000,308.0000000000,86.0000000000,0.0000000000
1717675320475,6.0000000000,0.0000000000,100.0000000000,307.0000000000,86.0000000000,0.0000000000
1717675320476,6.0000000000,0.0000000000,100.0000000000,304.0000000000,84.0000000000,0.0000000000
1717675320477,5.0000000000,0.0000000000,99.0000000000,304.0000000000,84.0000000000,0.0000000000
1717675320477,5.0000000000,0.0000000000,99.0000000000,301.0000000000,84.0000000000,0.0000000000
1717675320477,6.0000000000,0.0000000000,99.0000000000,300.0000000000,83.0000000000,0.0000000000
1717675320477,6.0000000000,0.0000000000,97.0000000000,297.0000000000,83.0000000000,0.0000000000
1717675320477,6.0000000000,0.0000000000,97.0000000000,295.0000000000,83.0000000000,0.0000000000
1717675320477,6.0000000000,0.0000000000,97.0000000000,295.0000000000,82.0000000000,0.0000000000
1717675320492,6.0000000000,0.0000000000,97.0000000000,293.0000000000,82.0000000000,0.0000000000
1717675320493,5.0000000000,0.0000000000,96.0000000000,291.0000000000,82.0000000000,0.0000000000
1717675320493,6.0000000000,0.0000000000,96.0000000000,340.0000000000,81.0000000000,0.0000000000
1717675320493,6.0000000000,0.0000000000,95.0000000000,385.0000000000,81.0000000000,0.0000000000
1717675320493,5.0000000000,0.0000000000,95.0000000000,382.0000000000,81.0000000000,0.0000000000
1717675320493,5.0000000000,0.0000000000,94.0000000000,379.0000000000,87.0000000000,0.0000000000
1717675320494,5.0000000000,0.0000000000,93.0000000000,376.0000000000,123.0000000000,0.0000000000
1717675320494,5.0000000000,0.0000000000,94.0000000000,446.0000000000,127.0000000000,0.0000000000
1717675320494,5.0000000000,0.0000000000,93.0000000000,441.0000000000,134.0000000000,0.0000000000
1717675320494,5.0000000000,0.0000000000,92.0000000000,438.0000000000,132.0000000000,0.0000000000
1717675320494,4.0000000000,0.0000000000,92.0000000000,435.0000000000,131.0000000000,0.0000000000
1717675320508,5.0000000000,0.0000000000,92.0000000000,432.0000000000,131.0000000000,0.0000000000
1717675320508,17.0000000000,0.0000000000,131.0000000000,428.0000000000,130.0000000000,3.0000000000
1717675320508,32.0000000000,0.0000000000,231.0000000000,425.0000000000,129.0000000000,3.0000000000
1717675320508,32.0000000000,0.0000000000,228.0000000000,422.0000000000,151.0000000000,3.0000000000
1717675320508,31.0000000000,0.0000000000,226.0000000000,475.0000000000,148.0000000000,3.0000000000
1717675320509,31.0000000000,0.0000000000,224.0000000000,472.0000000000,147.0000000000,3.0000000000
1717675320509,31.0000000000,52.0000000000,223.0000000000,490.0000000000,147.0000000000,3.0000000000
1717675320509,31.0000000000,52.0000000000,221.0000000000,486.0000000000,145.0000000000,3.0000000000
1717675320509,31.0000000000,51.0000000000,219.0000000000,481.0000000000,144.0000000000,2.0000000000
1717675320509,31.0000000000,51.0000000000,219.0000000000,476.0000000000,143.0000000000,3.0000000000
1717675320531,31.0000000000,50.0000000000,216.0000000000,472.0000000000,143.0000000000,2.0000000000
1717675320531,30.0000000000,49.0000000000,216.0000000000,468.0000000000,142.0000000000,3.0000000000
1717675320532,30.0000000000,50.0000000000,214.0000000000,465.0000000000,141.0000000000,2.0000000000
1717675320532,30.0000000000,49.0000000000,213.0000000000,460.0000000000,140.0000000000,3.0000000000
1717675320532,30.0000000000,49.0000000000,211.0000000000,455.0000000000,139.0000000000,2.0000000000
1717675320532,30.0000000000,48.0000000000,209.0000000000,453.0000000000,137.0000000000,3.0000000000
1717675320533,29.0000000000,48.0000000000,209.0000000000,449.0000000000,137.0000000000,2.0000000000
1717675320533,29.0000000000,48.0000000000,207.0000000000,447.0000000000,136.0000000000,3.0000000000
1717675320533,29.0000000000,48.0000000000,207.0000000000,442.0000000000,135.0000000000,3.0000000000
1717675320533,28.0000000000,47.0000000000,204.0000000000,439.0000000000,135.0000000000,3.0000000000
1717675320533,28.0000000000,47.0000000000,203.0000000000,435.0000000000,134.0000000000,2.0000000000
1717675320533,28.0000000000,47.0000000000,203.0000000000,432.0000000000,134.0000000000,2.0000000000
1717675320533,28.0000000000,68.0000000000,201.0000000000,429.0000000000,142.0000000000,3.0000000000
1717675320548,29.0000000000,175.0000000000,199.0000000000,451.0000000000,140.0000000000,5.0000000000
1717675320549,34.0000000000,187.0000000000,199.0000000000,446.0000000000,140.0000000000,5.0000000000
1717675320549,34.0000000000,184.0000000000,198.0000000000,441.0000000000,138.0000000000,4.0000000000
1717675320549,34.0000000000,184.0000000000,196.0000000000,438.0000000000,137.0000000000,5.0000000000
1717675320549,33.0000000000,182.0000000000,195.0000000000,434.0000000000,135.0000000000,5.0000000000
1717675320549,33.0000000000,180.0000000000,194.0000000000,430.0000000000,135.0000000000,5.0000000000
1717675320550,33.0000000000,179.0000000000,240.0000000000,427.0000000000,135.0000000000,5.0000000000
1717675320550,33.0000000000,178.0000000000,265.0000000000,423.0000000000,134.0000000000,4.0000000000
1717675320550,32.0000000000,176.0000000000,263.0000000000,419.0000000000,133.0000000000,5.0000000000
1717675320563,32.0000000000,175.0000000000,260.0000000000,415.0000000000,132.0000000000,5.0000000000
1717675320563,31.0000000000,174.0000000000,259.0000000000,413.0000000000,131.0000000000,4.0000000000
1717675320563,31.0000000000,173.0000000000,255.0000000000,411.0000000000,131.0000000000,4.0000000000
1717675320563,31.0000000000,172.0000000000,255.0000000000,408.0000000000,129.0000000000,4.0000000000
1717675320563,31.0000000000,171.0000000000,254.0000000000,403.0000000000,129.0000000000,4.0000000000
1717675320564,31.0000000000,169.0000000000,252.0000000000,400.0000000000,127.0000000000,4.0000000000
1717675320564,31.0000000000,167.0000000000,249.0000000000,398.0000000000,127.0000000000,4.0000000000
1717675320579,31.0000000000,167.0000000000,345.0000000000,396.0000000000,127.0000000000,4.0000000000
1717675320579,30.0000000000,166.0000000000,360.0000000000,463.0000000000,155.0000000000,4.0000000000
1717675320579,30.0000000000,165.0000000000,358.0000000000,504.0000000000,152.0000000000,4.0000000000
1717675320580,31.0000000000,163.0000000000,354.0000000000,500.0000000000,152.0000000000,3.0000000000
1717675320580,30.0000000000,163.0000000000,351.0000000000,495.0000000000,150.0000000000,3.0000000000
1717675320580,30.0000000000,161.0000000000,348.0000000000,491.0000000000,149.0000000000,3.0000000000
1717675320580,39.0000000000,161.0000000000,345.0000000000,486.0000000000,148.0000000000,3.0000000000
1717675320580,41.0000000000,159.0000000000,343.0000000000,481.0000000000,147.0000000000,3.0000000000
1717675320595,41.0000000000,159.0000000000,340.0000000000,478.0000000000,166.0000000000,6.0000000000
1717675320595,40.0000000000,158.0000000000,337.0000000000,473.0000000000,164.0000000000,5.0000000000
1717675320595,39.0000000000,157.0000000000,335.0000000000,468.0000000000,163.0000000000,5.0000000000
1717675320595,39.0000000000,156.0000000000,334.0000000000,464.0000000000,162.0000000000,5.0000000000
1717675320595,39.0000000000,155.0000000000,331.0000000000,462.0000000000,161.0000000000,5.0000000000
1717675320596,39.0000000000,154.0000000000,327.0000000000,457.0000000000,159.0000000000,6.0000000000
1717675320596,39.0000000000,153.0000000000,327.0000000000,453.0000000000,159.0000000000,4.0000000000
1717675320596,39.0000000000,152.0000000000,324.0000000000,449.0000000000,158.0000000000,5.0000000000
1717675320596,39.0000000000,152.0000000000,322.0000000000,447.0000000000,157.0000000000,5.0000000000
1717675320608,38.0000000000,150.0000000000,319.0000000000,497.0000000000,156.0000000000,4.0000000000
1717675320609,38.0000000000,149.0000000000,318.0000000000,492.0000000000,155.0000000000,5.0000000000
1717675320610,38.0000000000,147.0000000000,316.0000000000,487.0000000000,153.0000000000,5.0000000000
1717675320610,38.0000000000,147.0000000000,313.0000000000,484.0000000000,153.0000000000,4.0000000000
1717675320610,38.0000000000,147.0000000000,312.0000000000,480.0000000000,152.0000000000,4.0000000000
1717675320610,37.0000000000,146.0000000000,310.0000000000,476.0000000000,152.0000000000,4.0000000000
1717675320610,36.0000000000,145.0000000000,307.0000000000,472.0000000000,150.0000000000,4.0000000000
1717675320611,36.0000000000,144.0000000000,305.0000000000,467.0000000000,149.0000000000,4.0000000000
1717675320611,36.0000000000,143.0000000000,304.0000000000,463.0000000000,147.0000000000,4.0000000000
1717675320625,35.0000000000,142.0000000000,302.0000000000,459.0000000000,147.0000000000,4.0000000000
1717675320625,36.0000000000,142.0000000000,300.0000000000,455.0000000000,146.0000000000,4.0000000000
1717675320625,36.0000000000,140.0000000000,297.0000000000,451.0000000000,145.0000000000,4.0000000000
1717675320626,35.0000000000,140.0000000000,295.0000000000,448.0000000000,144.0000000000,4.0000000000
1717675320626,35.0000000000,139.0000000000,294.0000000000,444.0000000000,143.0000000000,4.0000000000
1717675320626,35.0000000000,137.0000000000,339.0000000000,440.0000000000,143.0000000000,4.0000000000
1717675320626,35.0000000000,137.0000000000,376.0000000000,486.0000000000,142.0000000000,4.0000000000
1717675320638,35.0000000000,135.0000000000,372.0000000000,481.0000000000,140.0000000000,4.0000000000
1717675320639,35.0000000000,135.0000000000,370.0000000000,476.0000000000,140.0000000000,4.0000000000
1717675320640,35.0000000000,135.0000000000,368.0000000000,472.0000000000,140.0000000000,4.0000000000
1717675320640,34.0000000000,134.0000000000,364.0000000000,468.0000000000,139.0000000000,4.0000000000
1717675320640,33.0000000000,134.0000000000,361.0000000000,463.0000000000,137.0000000000,6.0000000000
1717675320640,34.0000000000,132.0000000000,358.0000000000,460.0000000000,135.0000000000,6.0000000000
1717675320640,34.0000000000,131.0000000000,356.0000000000,455.0000000000,135.0000000000,6.0000000000
1717675320640,34.0000000000,131.0000000000,353.0000000000,470.0000000000,135.0000000000,6.0000000000
1717675320661,34.0000000000,131.0000000000,351.0000000000,466.0000000000,135.0000000000,6.0000000000
1717675320661,33.0000000000,129.0000000000,348.0000000000,462.0000000000,134.0000000000,6.0000000000
1717675320662,33.0000000000,129.0000000000,347.0000000000,562.0000000000,133.0000000000,6.0000000000
1717675320662,33.0000000000,127.0000000000,344.0000000000,581.0000000000,131.0000000000,6.0000000000
1717675320662,33.0000000000,127.0000000000,342.0000000000,575.0000000000,131.0000000000,6.0000000000
1717675320662,33.0000000000,127.0000000000,339.0000000000,568.0000000000,130.0000000000,5.0000000000
1717675320662,31.0000000000,126.0000000000,337.0000000000,563.0000000000,129.0000000000,5.0000000000
1717675320662,31.0000000000,125.0000000000,335.0000000000,559.0000000000,129.0000000000,7.0000000000
1717675320662,47.0000000000,124.0000000000,332.0000000000,585.0000000000,127.0000000000,7.0000000000
1717675320662,46.0000000000,124.0000000000,329.0000000000,579.0000000000,127.0000000000,7.0000000000
1717675320662,46.0000000000,123.0000000000,327.0000000000,572.0000000000,127.0000000000,7.0000000000
1717675320696,46.0000000000,123.0000000000,326.0000000000,567.0000000000,126.0000000000,7.0000000000
1717675320697,45.0000000000,121.0000000000,323.0000000000,639.0000000000,125.0000000000,7.0000000000
1717675320697,45.0000000000,150.0000000000,321.0000000000,629.0000000000,124.0000000000,6.0000000000
1717675320697,44.0000000000,264.0000000000,319.0000000000,622.0000000000,124.0000000000,6.0000000000
1717675320697,44.0000000000,282.0000000000,317.0000000000,615.0000000000,123.0000000000,7.0000000000
1717675320697,44.0000000000,280.0000000000,315.0000000000,608.0000000000,122.0000000000,7.0000000000
1717675320697,44.0000000000,278.0000000000,312.0000000000,603.0000000000,121.0000000000,7.0000000000
1717675320697,43.0000000000,275.0000000000,311.0000000000,659.0000000000,121.0000000000,7.0000000000
1717675320698,43.0000000000,272.0000000000,309.0000000000,652.0000000000,120.0000000000,6.0000000000
1717675320698,43.0000000000,271.0000000000,318.0000000000,646.0000000000,120.0000000000,6.0000000000
1717675320698,43.0000000000,269.0000000000,316.0000000000,639.0000000000,184.0000000000,7.0000000000
1717675320698,42.0000000000,268.0000000000,314.0000000000,634.0000000000,227.0000000000,6.0000000000
1717675320698,42.0000000000,264.0000000000,312.0000000000,627.0000000000,225.0000000000,6.0000000000
1717675320698,41.0000000000,263.0000000000,310.0000000000,622.0000000000,223.0000000000,6.0000000000
1717675320698,41.0000000000,262.0000000000,307.0000000000,615.0000000000,221.0000000000,6.0000000000
1717675320698,41.0000000000,259.0000000000,304.0000000000,608.0000000000,220.0000000000,6.0000000000
1717675320698,41.0000000000,257.0000000000,304.0000000000,678.0000000000,218.0000000000,6.0000000000
1717675320698,41.0000000000,255.0000000000,301.0000000000,691.0000000000,216.0000000000,6.0000000000
1717675320698,43.0000000000,255.0000000000,300.0000000000,685.0000000000,215.0000000000,7.0000000000
1717675320699,44.0000000000,252.0000000000,297.0000000000,676.0000000000,214.0000000000,6.0000000000
1717675320715,44.0000000000,251.0000000000,295.0000000000,668.0000000000,212.0000000000,6.0000000000
1717675320716,43.0000000000,249.0000000000,294.0000000000,661.0000000000,211.0000000000,6.0000000000
1717675320716,42.0000000000,248.0000000000,292.0000000000,655.0000000000,209.0000000000,6.0000000000
1717675320716,42.0000000000,247.0000000000,290.0000000000,647.0000000000,207.0000000000,6.0000000000
1717675320716,41.0000000000,244.0000000000,288.0000000000,639.0000000000,207.0000000000,6.0000000000
1717675320717,41.0000000000,243.0000000000,287.0000000000,633.0000000000,205.0000000000,6.0000000000
1717675320717,41.0000000000,241.0000000000,285.0000000000,628.0000000000,204.0000000000,6.0000000000
1717675320717,41.0000000000,240.0000000000,283.0000000000,621.0000000000,203.0000000000,6.0000000000
1717675320717,41.0000000000,239.0000000000,281.0000000000,615.0000000000,201.0000000000,6.0000000000
1717675320717,39.0000000000,236.0000000000,280.0000000000,608.0000000000,199.0000000000,6.0000000000
1717675320717,41.0000000000,235.0000000000,278.0000000000,604.0000000000,199.0000000000,6.0000000000
1717675320730,49.0000000000,234.0000000000,276.0000000000,632.0000000000,198.0000000000,6.0000000000
1717675320731,49.0000000000,231.0000000000,275.0000000000,624.0000000000,196.0000000000,6.0000000000
1717675320731,48.0000000000,231.0000000000,273.0000000000,615.0000000000,195.0000000000,6.0000000000
1717675320731,48.0000000000,230.0000000000,271.0000000000,611.0000000000,194.0000000000,6.0000000000
1717675320731,48.0000000000,228.0000000000,270.0000000000,604.0000000000,192.0000000000,6.0000000000
1717675320731,48.0000000000,227.0000000000,268.0000000000,598.0000000000,192.0000000000,6.0000000000
1717675320745,47.0000000000,225.0000000000,267.0000000000,705.0000000000,211.0000000000,5.0000000000
1717675320746,47.0000000000,224.0000000000,265.0000000000,697.0000000000,209.0000000000,4.0000000000
1717675320746,46.0000000000,223.0000000000,263.0000000000,689.0000000000,208.0000000000,5.0000000000
1717675320746,46.0000000000,221.0000000000,263.0000000000,680.0000000000,207.0000000000,5.0000000000
1717675320746,46.0000000000,220.0000000000,261.0000000000,671.0000000000,205.0000000000,5.0000000000
1717675320746,46.0000000000,219.0000000000,259.0000000000,667.0000000000,204.0000000000,5.0000000000
1717675320746,45.0000000000,217.0000000000,257.0000000000,659.0000000000,203.0000000000,5.0000000000
1717675320747,44.0000000000,216.0000000000,255.0000000000,652.0000000000,201.0000000000,5.0000000000
1717675320747,45.0000000000,214.0000000000,255.0000000000,644.0000000000,199.0000000000,4.0000000000
1717675320760,44.0000000000,214.0000000000,270.0000000000,637.0000000000,199.0000000000,4.0000000000
1717675320761,44.0000000000,212.0000000000,268.0000000000,632.0000000000,197.0000000000,4.0000000000
1717675320762,44.0000000000,211.0000000000,265.0000000000,624.0000000000,195.0000000000,4.0000000000
1717675320762,43.0000000000,209.0000000000,263.0000000000,617.0000000000,195.0000000000,5.0000000000
1717675320762,43.0000000000,207.0000000000,263.0000000000,611.0000000000,193.0000000000,4.0000000000
1717675320762,43.0000000000,207.0000000000,260.0000000000,607.0000000000,192.0000000000,5.0000000000
1717675320762,43.0000000000,206.0000000000,259.0000000000,600.0000000000,191.0000000000,4.0000000000
1717675320762,43.0000000000,204.0000000000,257.0000000000,594.0000000000,190.0000000000,4.0000000000
1717675320762,41.0000000000,204.0000000000,255.0000000000,588.0000000000,189.0000000000,4.0000000000
1717675320775,41.0000000000,202.0000000000,254.0000000000,583.0000000000,188.0000000000,4.0000000000
1717675320776,41.0000000000,201.0000000000,252.0000000000,578.0000000000,187.0000000000,4.0000000000
1717675320776,41.0000000000,199.0000000000,251.0000000000,572.0000000000,185.0000000000,4.0000000000
1717675320776,41.0000000000,199.0000000000,249.0000000000,567.0000000000,184.0000000000,4.0000000000
1717675320776,41.0000000000,198.0000000000,248.0000000000,563.0000000000,184.0000000000,4.0000000000
1717675320776,40.0000000000,196.0000000000,247.0000000000,557.0000000000,182.0000000000,4.0000000000
1717675320776,40.0000000000,195.0000000000,246.0000000000,551.0000000000,182.0000000000,4.0000000000
1717675320790,39.0000000000,194.0000000000,243.0000000000,547.0000000000,179.0000000000,4.0000000000
1717675320791,40.0000000000,193.0000000000,243.0000000000,543.0000000000,179.0000000000,4.0000000000
1717675320791,39.0000000000,192.0000000000,241.0000000000,537.0000000000,177.0000000000,4.0000000000
1717675320791,39.0000000000,191.0000000000,240.0000000000,534.0000000000,179.0000000000,4.0000000000
1717675320791,39.0000000000,190.0000000000,239.0000000000,642.0000000000,252.0000000000,3.0000000000
1717675320791,39.0000000000,188.0000000000,237.0000000000,636.0000000000,249.0000000000,4.0000000000
1717675320791,39.0000000000,188.0000000000,236.0000000000,628.0000000000,248.0000000000,4.0000000000
1717675320791,39.0000000000,186.0000000000,234.0000000000,620.0000000000,246.0000000000,4.0000000000
1717675320805,39.0000000000,185.0000000000,233.0000000000,614.0000000000,243.0000000000,4.0000000000
1717675320805,39.0000000000,184.0000000000,231.0000000000,607.0000000000,241.0000000000,4.0000000000
1717675320805,50.0000000000,184.0000000000,231.0000000000,601.0000000000,240.0000000000,4.0000000000
1717675320806,50.0000000000,182.0000000000,229.0000000000,595.0000000000,238.0000000000,3.0000000000
1717675320806,50.0000000000,181.0000000000,228.0000000000,590.0000000000,237.0000000000,3.0000000000
1717675320806,50.0000000000,179.0000000000,239.0000000000,583.0000000000,236.0000000000,4.0000000000
1717675320806,49.0000000000,179.0000000000,237.0000000000,579.0000000000,233.0000000000,4.0000000000
1717675320825,48.0000000000,178.0000000000,236.0000000000,572.0000000000,231.0000000000,3.0000000000
1717675320826,48.0000000000,177.0000000000,234.0000000000,568.0000000000,231.0000000000,4.0000000000
1717675320826,48.0000000000,176.0000000000,232.0000000000,561.0000000000,230.0000000000,4.0000000000
1717675320826,48.0000000000,176.0000000000,231.0000000000,556.0000000000,227.0000000000,3.0000000000
1717675320827,47.0000000000,174.0000000000,231.0000000000,551.0000000000,226.0000000000,14.0000000000
1717675320827,47.0000000000,173.0000000000,229.0000000000,546.0000000000,224.0000000000,14.0000000000
1717675320827,47.0000000000,172.0000000000,228.0000000000,540.0000000000,224.0000000000,14.0000000000
1717675320827,47.0000000000,172.0000000000,227.0000000000,536.0000000000,222.0000000000,13.0000000000
1717675320827,46.0000000000,169.0000000000,225.0000000000,531.0000000000,220.0000000000,13.0000000000
1717675320827,46.0000000000,169.0000000000,224.0000000000,526.0000000000,219.0000000000,13.0000000000
1717675320827,46.0000000000,167.0000000000,223.0000000000,520.0000000000,217.0000000000,12.0000000000
1717675320828,46.0000000000,167.0000000000,221.0000000000,516.0000000000,216.0000000000,12.0000000000
1717675320828,44.0000000000,167.0000000000,220.0000000000,511.0000000000,215.0000000000,12.0000000000
1717675320844,44.0000000000,164.0000000000,246.0000000000,508.0000000000,213.0000000000,12.0000000000
1717675320846,44.0000000000,164.0000000000,243.0000000000,504.0000000000,211.0000000000,12.0000000000
1717675320846,44.0000000000,163.0000000000,241.0000000000,499.0000000000,210.0000000000,12.0000000000
1717675320846,44.0000000000,163.0000000000,240.0000000000,495.0000000000,209.0000000000,12.0000000000
1717675320846,44.0000000000,161.0000000000,238.0000000000,491.0000000000,207.0000000000,12.0000000000
1717675320846,43.0000000000,161.0000000000,236.0000000000,487.0000000000,206.0000000000,12.0000000000
1717675320847,43.0000000000,159.0000000000,235.0000000000,588.0000000000,205.0000000000,12.0000000000
1717675320847,43.0000000000,159.0000000000,233.0000000000,580.0000000000,204.0000000000,12.0000000000
1717675320860,41.0000000000,158.0000000000,231.0000000000,574.0000000000,203.0000000000,12.0000000000
1717675320861,41.0000000000,157.0000000000,231.0000000000,568.0000000000,201.0000000000,12.0000000000
1717675320861,41.0000000000,156.0000000000,228.0000000000,562.0000000000,199.0000000000,11.0000000000
1717675320861,41.0000000000,155.0000000000,227.0000000000,556.0000000000,199.0000000000,12.0000000000
1717675320861,41.0000000000,153.0000000000,225.0000000000,550.0000000000,198.0000000000,11.0000000000
1717675320861,40.0000000000,153.0000000000,224.0000000000,543.0000000000,196.0000000000,11.0000000000
1717675320861,39.0000000000,152.0000000000,223.0000000000,540.0000000000,195.0000000000,11.0000000000
1717675320862,39.0000000000,152.0000000000,221.0000000000,541.0000000000,194.0000000000,11.0000000000
1717675320876,39.0000000000,151.0000000000,220.0000000000,591.0000000000,192.0000000000,11.0000000000
1717675320877,39.0000000000,150.0000000000,217.0000000000,585.0000000000,192.0000000000,11.0000000000
1717675320877,39.0000000000,149.0000000000,216.0000000000,579.0000000000,190.0000000000,11.0000000000
1717675320877,39.0000000000,148.0000000000,216.0000000000,572.0000000000,189.0000000000,11.0000000000
1717675320877,39.0000000000,147.0000000000,215.0000000000,609.0000000000,188.0000000000,10.0000000000
1717675320877,39.0000000000,146.0000000000,214.0000000000,601.0000000000,187.0000000000,11.0000000000
1717675320877,38.0000000000,146.0000000000,212.0000000000,595.0000000000,185.0000000000,11.0000000000
1717675320878,38.0000000000,145.0000000000,211.0000000000,588.0000000000,184.0000000000,10.0000000000
1717675320878,38.0000000000,143.0000000000,209.0000000000,582.0000000000,184.0000000000,10.0000000000
1717675320891,38.0000000000,143.0000000000,208.0000000000,575.0000000000,183.0000000000,9.0000000000
1717675320892,37.0000000000,142.0000000000,207.0000000000,571.0000000000,182.0000000000,10.0000000000
1717675320892,37.0000000000,142.0000000000,206.0000000000,566.0000000000,179.0000000000,10.0000000000
1717675320892,36.0000000000,140.0000000000,205.0000000000,560.0000000000,179.0000000000,9.0000000000
1717675320892,36.0000000000,140.0000000000,204.0000000000,553.0000000000,178.0000000000,9.0000000000
1717675320893,36.0000000000,140.0000000000,203.0000000000,547.0000000000,177.0000000000,9.0000000000
1717675320893,36.0000000000,139.0000000000,201.0000000000,543.0000000000,176.0000000000,9.0000000000
1717675320893,35.0000000000,137.0000000000,200.0000000000,539.0000000000,175.0000000000,9.0000000000
1717675320910,35.0000000000,137.0000000000,199.0000000000,534.0000000000,174.0000000000,9.0000000000
1717675320910,35.0000000000,135.0000000000,199.0000000000,528.0000000000,173.0000000000,9.0000000000
1717675320911,35.0000000000,135.0000000000,198.0000000000,524.0000000000,172.0000000000,9.0000000000
1717675320911,35.0000000000,135.0000000000,196.0000000000,519.0000000000,171.0000000000,9.0000000000
1717675320911,34.0000000000,134.0000000000,195.0000000000,515.0000000000,170.0000000000,9.0000000000
1717675320911,34.0000000000,134.0000000000,195.0000000000,510.0000000000,169.0000000000,9.0000000000
1717675320911,33.0000000000,132.0000000000,193.0000000000,505.0000000000,167.0000000000,8.0000000000
1717675320911,34.0000000000,132.0000000000,193.0000000000,502.0000000000,175.0000000000,9.0000000000
1717675320911,33.0000000000,131.0000000000,249.0000000000,497.0000000000,287.0000000000,31.0000000000
1717675320926,33.0000000000,131.0000000000,248.0000000000,492.0000000000,284.0000000000,31.0000000000
1717675320927,33.0000000000,130.0000000000,246.0000000000,505.0000000000,281.0000000000,31.0000000000
1717675320928,32.0000000000,129.0000000000,254.0000000000,500.0000000000,280.0000000000,31.0000000000
1717675320928,33.0000000000,127.0000000000,352.0000000000,495.0000000000,278.0000000000,30.0000000000
1717675320928,32.0000000000,127.0000000000,349.0000000000,491.0000000000,276.0000000000,30.0000000000
1717675320928,32.0000000000,127.0000000000,345.0000000000,486.0000000000,274.0000000000,30.0000000000
1717675320928,32.0000000000,126.0000000000,344.0000000000,481.0000000000,271.0000000000,30.0000000000
1717675320928,31.0000000000,125.0000000000,340.0000000000,478.0000000000,270.0000000000,30.0000000000
1717675320941,31.0000000000,125.0000000000,337.0000000000,473.0000000000,268.0000000000,29.0000000000
1717675320942,31.0000000000,209.0000000000,335.0000000000,471.0000000000,265.0000000000,29.0000000000
1717675320942,31.0000000000,207.0000000000,332.0000000000,467.0000000000,263.0000000000,29.0000000000
1717675320942,31.0000000000,206.0000000000,329.0000000000,463.0000000000,262.0000000000,29.0000000000
1717675320942,31.0000000000,204.0000000000,327.0000000000,460.0000000000,260.0000000000,28.0000000000
1717675320942,31.0000000000,202.0000000000,324.0000000000,455.0000000000,259.0000000000,28.0000000000
1717675320942,31.0000000000,201.0000000000,323.0000000000,451.0000000000,255.0000000000,28.0000000000
1717675320943,31.0000000000,199.0000000000,319.0000000000,448.0000000000,255.0000000000,28.0000000000
1717675320943,30.0000000000,198.0000000000,318.0000000000,444.0000000000,254.0000000000,27.0000000000
1717675320957,30.0000000000,196.0000000000,316.0000000000,440.0000000000,252.0000000000,28.0000000000
1717675320957,30.0000000000,195.0000000000,313.0000000000,438.0000000000,250.0000000000,28.0000000000
1717675320957,29.0000000000,193.0000000000,312.0000000000,434.0000000000,248.0000000000,27.0000000000
1717675320957,30.0000000000,192.0000000000,310.0000000000,431.0000000000,247.0000000000,27.0000000000
1717675320957,29.0000000000,191.0000000000,307.0000000000,427.0000000000,244.0000000000,27.0000000000
1717675320958,29.0000000000,190.0000000000,305.0000000000,423.0000000000,243.0000000000,26.0000000000
1717675320971,29.0000000000,188.0000000000,303.0000000000,422.0000000000,241.0000000000,26.0000000000
1717675320972,28.0000000000,188.0000000000,301.0000000000,418.0000000000,240.0000000000,25.0000000000
1717675320972,28.0000000000,186.0000000000,299.0000000000,415.0000000000,239.0000000000,25.0000000000
1717675320972,28.0000000000,185.0000000000,297.0000000000,412.0000000000,237.0000000000,25.0000000000
1717675320972,28.0000000000,184.0000000000,295.0000000000,408.0000000000,236.0000000000,25.0000000000
1717675320972,28.0000000000,183.0000000000,293.0000000000,406.0000000000,233.0000000000,25.0000000000
1717675320972,28.0000000000,182.0000000000,291.0000000000,433.0000000000,231.0000000000,24.0000000000
1717675320972,28.0000000000,179.0000000000,288.0000000000,442.0000000000,231.0000000000,25.0000000000
1717675320988,27.0000000000,179.0000000000,287.0000000000,438.0000000000,230.0000000000,24.0000000000
1717675320990,27.0000000000,177.0000000000,286.0000000000,433.0000000000,228.0000000000,24.0000000000
1717675320990,27.0000000000,176.0000000000,284.0000000000,527.0000000000,227.0000000000,24.0000000000
1717675320990,27.0000000000,176.0000000000,281.0000000000,520.0000000000,225.0000000000,24.0000000000
1717675320990,27.0000000000,174.0000000000,280.0000000000,515.0000000000,224.0000000000,24.0000000000
1717675320991,26.0000000000,173.0000000000,278.0000000000,510.0000000000,222.0000000000,24.0000000000
1717675320991,27.0000000000,172.0000000000,276.0000000000,505.0000000000,220.0000000000,24.0000000000
1717675320991,26.0000000000,171.0000000000,275.0000000000,500.0000000000,220.0000000000,24.0000000000
1717675320991,26.0000000000,169.0000000000,272.0000000000,496.0000000000,217.0000000000,24.0000000000
1717675320992,25.0000000000,168.0000000000,271.0000000000,492.0000000000,216.0000000000,24.0000000000
1717675320992,25.0000000000,167.0000000000,269.0000000000,487.0000000000,216.0000000000,23.0000000000
1717675321022,25.0000000000,167.0000000000,268.0000000000,482.0000000000,214.0000000000,23.0000000000
1717675321023,25.0000000000,166.0000000000,265.0000000000,478.0000000000,213.0000000000,23.0000000000
1717675321024,25.0000000000,164.0000000000,263.0000000000,473.0000000000,211.0000000000,23.0000000000
1717675321024,25.0000000000,163.0000000000,263.0000000000,469.0000000000,211.0000000000,22.0000000000
1717675321024,24.0000000000,163.0000000000,261.0000000000,464.0000000000,209.0000000000,22.0000000000
1717675321024,24.0000000000,161.0000000000,259.0000000000,592.0000000000,207.0000000000,22.0000000000
1717675321025,24.0000000000,160.0000000000,258.0000000000,584.0000000000,207.0000000000,22.0000000000
1717675321025,24.0000000000,159.0000000000,255.0000000000,578.0000000000,205.0000000000,22.0000000000
1717675321025,24.0000000000,158.0000000000,255.0000000000,572.0000000000,204.0000000000,21.0000000000
1717675321025,24.0000000000,158.0000000000,253.0000000000,566.0000000000,203.0000000000,22.0000000000
1717675321026,24.0000000000,156.0000000000,252.0000000000,561.0000000000,201.0000000000,21.0000000000
1717675321026,24.0000000000,156.0000000000,249.0000000000,555.0000000000,199.0000000000,20.0000000000
1717675321026,24.0000000000,155.0000000000,248.0000000000,549.0000000000,199.0000000000,21.0000000000
1717675321027,24.0000000000,153.0000000000,247.0000000000,543.0000000000,198.0000000000,21.0000000000
1717675321027,23.0000000000,152.0000000000,246.0000000000,539.0000000000,196.0000000000,20.0000000000
1717675321028,24.0000000000,152.0000000000,243.0000000000,533.0000000000,195.0000000000,20.0000000000
1717675321028,23.0000000000,151.0000000000,243.0000000000,527.0000000000,194.0000000000,20.0000000000
1717675321028,23.0000000000,150.0000000000,241.0000000000,523.0000000000,193.0000000000,20.0000000000
1717675321028,24.0000000000,149.0000000000,240.0000000000,518.0000000000,192.0000000000,19.0000000000
1717675321046,23.0000000000,147.0000000000,238.0000000000,513.0000000000,192.0000000000,19.0000000000
1717675321046,23.0000000000,196.0000000000,237.0000000000,508.0000000000,190.0000000000,20.0000000000
1717675321046,23.0000000000,194.0000000000,236.0000000000,504.0000000000,189.0000000000,19.0000000000
1717675321046,22.0000000000,193.0000000000,234.0000000000,499.0000000000,188.0000000000,19.0000000000
1717675321046,22.0000000000,192.0000000000,232.0000000000,494.0000000000,187.0000000000,19.0000000000
1717675321046,22.0000000000,190.0000000000,231.0000000000,491.0000000000,185.0000000000,19.0000000000
1717675321046,22.0000000000,189.0000000000,230.0000000000,487.0000000000,184.0000000000,19.0000000000
1717675321046,22.0000000000,188.0000000000,228.0000000000,482.0000000000,184.0000000000,19.0000000000
1717675321076,22.0000000000,186.0000000000,227.0000000000,478.0000000000,182.0000000000,19.0000000000
1717675321077,21.0000000000,184.0000000000,291.0000000000,473.0000000000,191.0000000000,18.0000000000
1717675321077,21.0000000000,184.0000000000,288.0000000000,595.0000000000,195.0000000000,19.0000000000
1717675321077,21.0000000000,183.0000000000,286.0000000000,588.0000000000,193.0000000000,18.0000000000
1717675321078,21.0000000000,181.0000000000,284.0000000000,580.0000000000,192.0000000000,18.0000000000
1717675321078,21.0000000000,179.0000000000,283.0000000000,575.0000000000,191.0000000000,18.0000000000
1717675321078,20.0000000000,179.0000000000,280.0000000000,568.0000000000,189.0000000000,17.0000000000
1717675321078,20.0000000000,177.0000000000,278.0000000000,563.0000000000,188.0000000000,17.0000000000
1717675321078,20.0000000000,176.0000000000,276.0000000000,557.0000000000,187.0000000000,17.0000000000
1717675321078,19.0000000000,175.0000000000,275.0000000000,551.0000000000,185.0000000000,17.0000000000
1717675321078,20.0000000000,174.0000000000,272.0000000000,545.0000000000,184.0000000000,17.0000000000
1717675321078,19.0000000000,173.0000000000,271.0000000000,542.0000000000,183.0000000000,17.0000000000
1717675321079,19.0000000000,172.0000000000,268.0000000000,536.0000000000,182.0000000000,17.0000000000
1717675321079,19.0000000000,171.0000000000,267.0000000000,531.0000000000,180.0000000000,17.0000000000
1717675321079,19.0000000000,169.0000000000,263.0000000000,526.0000000000,179.0000000000,17.0000000000
1717675321079,19.0000000000,167.0000000000,263.0000000000,520.0000000000,179.0000000000,16.0000000000
1717675321079,19.0000000000,167.0000000000,261.0000000000,515.0000000000,177.0000000000,17.0000000000
1717675321093,22.0000000000,166.0000000000,259.0000000000,511.0000000000,176.0000000000,16.0000000000
1717675321094,22.0000000000,165.0000000000,257.0000000000,505.0000000000,175.0000000000,16.0000000000
1717675321094,21.0000000000,164.0000000000,255.0000000000,502.0000000000,175.0000000000,16.0000000000
1717675321094,22.0000000000,163.0000000000,255.0000000000,496.0000000000,173.0000000000,15.0000000000
1717675321094,21.0000000000,162.0000000000,253.0000000000,492.0000000000,172.0000000000,16.0000000000
1717675321094,21.0000000000,161.0000000000,252.0000000000,487.0000000000,171.0000000000,15.0000000000
1717675321095,21.0000000000,159.0000000000,249.0000000000,483.0000000000,170.0000000000,16.0000000000
1717675321095,20.0000000000,159.0000000000,248.0000000000,480.0000000000,169.0000000000,15.0000000000
1717675321111,20.0000000000,158.0000000000,247.0000000000,476.0000000000,167.0000000000,15.0000000000
1717675321112,20.0000000000,157.0000000000,245.0000000000,472.0000000000,167.0000000000,15.0000000000
1717675321112,20.0000000000,156.0000000000,243.0000000000,467.0000000000,166.0000000000,15.0000000000
1717675321113,20.0000000000,155.0000000000,242.0000000000,491.0000000000,185.0000000000,15.0000000000
1717675321113,19.0000000000,154.0000000000,240.0000000000,540.0000000000,184.0000000000,15.0000000000
1717675321113,20.0000000000,153.0000000000,298.0000000000,536.0000000000,183.0000000000,15.0000000000
1717675321113,19.0000000000,152.0000000000,308.0000000000,529.0000000000,182.0000000000,15.0000000000
1717675321114,19.0000000000,151.0000000000,305.0000000000,524.0000000000,180.0000000000,15.0000000000
1717675321114,19.0000000000,151.0000000000,304.0000000000,518.0000000000,179.0000000000,15.0000000000
1717675321114,19.0000000000,149.0000000000,301.0000000000,579.0000000000,178.0000000000,15.0000000000
1717675321114,19.0000000000,148.0000000000,299.0000000000,595.0000000000,177.0000000000,14.0000000000
1717675321127,19.0000000000,147.0000000000,295.0000000000,588.0000000000,175.0000000000,15.0000000000
1717675321129,19.0000000000,146.0000000000,295.0000000000,582.0000000000,174.0000000000,14.0000000000
1717675321129,19.0000000000,145.0000000000,292.0000000000,575.0000000000,173.0000000000,14.0000000000
1717675321129,19.0000000000,144.0000000000,290.0000000000,569.0000000000,172.0000000000,14.0000000000
1717675321129,18.0000000000,143.0000000000,287.0000000000,564.0000000000,171.0000000000,14.0000000000
1717675321129,18.0000000000,143.0000000000,286.0000000000,559.0000000000,169.0000000000,14.0000000000
1717675321146,18.0000000000,142.0000000000,284.0000000000,553.0000000000,167.0000000000,14.0000000000
1717675321147,18.0000000000,141.0000000000,281.0000000000,547.0000000000,167.0000000000,14.0000000000
1717675321147,18.0000000000,140.0000000000,280.0000000000,542.0000000000,167.0000000000,14.0000000000
1717675321147,18.0000000000,140.0000000000,322.0000000000,536.0000000000,165.0000000000,13.0000000000
1717675321147,19.0000000000,139.0000000000,319.0000000000,531.0000000000,164.0000000000,14.0000000000
1717675321147,20.0000000000,138.0000000000,318.0000000000,609.0000000000,163.0000000000,14.0000000000
1717675321147,20.0000000000,137.0000000000,315.0000000000,602.0000000000,163.0000000000,13.0000000000
1717675321148,19.0000000000,135.0000000000,312.0000000000,595.0000000000,163.0000000000,13.0000000000
1717675321148,19.0000000000,135.0000000000,311.0000000000,589.0000000000,161.0000000000,13.0000000000
1717675321148,19.0000000000,135.0000000000,308.0000000000,583.0000000000,160.0000000000,13.0000000000
1717675321148,19.0000000000,134.0000000000,305.0000000000,575.0000000000,159.0000000000,13.0000000000
1717675321171,19.0000000000,133.0000000000,304.0000000000,569.0000000000,159.0000000000,13.0000000000
1717675321172,19.0000000000,132.0000000000,301.0000000000,566.0000000000,158.0000000000,12.0000000000
1717675321172,19.0000000000,131.0000000000,299.0000000000,560.0000000000,157.0000000000,12.0000000000
1717675321172,19.0000000000,131.0000000000,296.0000000000,554.0000000000,156.0000000000,12.0000000000
1717675321172,19.0000000000,130.0000000000,295.0000000000,548.0000000000,155.0000000000,12.0000000000
1717675321172,19.0000000000,129.0000000000,292.0000000000,543.0000000000,153.0000000000,12.0000000000
1717675321172,19.0000000000,127.0000000000,291.0000000000,537.0000000000,159.0000000000,12.0000000000
1717675321173,18.0000000000,131.0000000000,288.0000000000,609.0000000000,216.0000000000,12.0000000000
1717675321173,18.0000000000,130.0000000000,287.0000000000,603.0000000000,215.0000000000,12.0000000000
1717675321173,18.0000000000,129.0000000000,285.0000000000,595.0000000000,212.0000000000,12.0000000000
1717675321173,18.0000000000,127.0000000000,283.0000000000,589.0000000000,211.0000000000,12.0000000000
1717675321173,18.0000000000,127.0000000000,281.0000000000,583.0000000000,209.0000000000,12.0000000000
1717675321186,19.0000000000,127.0000000000,280.0000000000,575.0000000000,207.0000000000,12.0000000000
1717675321187,19.0000000000,126.0000000000,277.0000000000,570.0000000000,206.0000000000,12.0000000000
1717675321187,19.0000000000,125.0000000000,275.0000000000,564.0000000000,205.0000000000,12.0000000000
1717675321187,19.0000000000,124.0000000000,273.0000000000,560.0000000000,204.0000000000,12.0000000000
1717675321187,19.0000000000,124.0000000000,271.0000000000,555.0000000000,202.0000000000,12.0000000000
1717675321187,19.0000000000,123.0000000000,270.0000000000,548.0000000000,200.0000000000,11.0000000000
1717675321202,19.0000000000,123.0000000000,268.0000000000,543.0000000000,199.0000000000,11.0000000000
1717675321202,19.0000000000,148.0000000000,267.0000000000,538.0000000000,198.0000000000,11.0000000000
1717675321203,19.0000000000,147.0000000000,264.0000000000,532.0000000000,196.0000000000,11.0000000000
1717675321203,18.0000000000,145.0000000000,263.0000000000,527.0000000000,195.0000000000,11.0000000000
1717675321203,18.0000000000,144.0000000000,262.0000000000,523.0000000000,194.0000000000,11.0000000000
1717675321203,18.0000000000,143.0000000000,259.0000000000,518.0000000000,193.0000000000,11.0000000000
1717675321203,17.0000000000,142.0000000000,258.0000000000,513.0000000000,192.0000000000,11.0000000000
1717675321203,17.0000000000,142.0000000000,255.0000000000,508.0000000000,191.0000000000,11.0000000000
1717675321203,17.0000000000,140.0000000000,255.0000000000,504.0000000000,189.0000000000,10.0000000000
1717675321220,17.0000000000,143.0000000000,253.0000000000,499.0000000000,188.0000000000,10.0000000000
1717675321220,17.0000000000,177.0000000000,252.0000000000,495.0000000000,187.0000000000,10.0000000000
1717675321220,17.0000000000,176.0000000000,251.0000000000,491.0000000000,191.0000000000,10.0000000000
1717675321221,17.0000000000,175.0000000000,248.0000000000,487.0000000000,189.0000000000,10.0000000000
1717675321221,17.0000000000,174.0000000000,247.0000000000,482.0000000000,188.0000000000,10.0000000000
1717675321221,17.0000000000,172.0000000000,245.0000000000,478.0000000000,187.0000000000,10.0000000000
1717675321221,17.0000000000,171.0000000000,243.0000000000,474.0000000000,185.0000000000,9.0000000000
1717675321221,16.0000000000,169.0000000000,243.0000000000,470.0000000000,184.0000000000,10.0000000000
1717675321221,16.0000000000,167.0000000000,241.0000000000,466.0000000000,184.0000000000,9.0000000000
1717675321222,16.0000000000,167.0000000000,240.0000000000,462.0000000000,182.0000000000,9.0000000000
1717675321240,16.0000000000,166.0000000000,238.0000000000,460.0000000000,180.0000000000,9.0000000000
1717675321241,16.0000000000,165.0000000000,236.0000000000,455.0000000000,179.0000000000,9.0000000000
1717675321241,15.0000000000,163.0000000000,236.0000000000,451.0000000000,179.0000000000,9.0000000000
1717675321241,15.0000000000,163.0000000000,263.0000000000,448.0000000000,201.0000000000,10.0000000000
1717675321241,15.0000000000,161.0000000000,295.0000000000,444.0000000000,199.0000000000,9.0000000000
1717675321241,15.0000000000,161.0000000000,294.0000000000,441.0000000000,198.0000000000,9.0000000000
1717675321242,15.0000000000,159.0000000000,291.0000000000,438.0000000000,196.0000000000,9.0000000000
1717675321242,15.0000000000,159.0000000000,289.0000000000,434.0000000000,195.0000000000,9.0000000000
1717675321242,15.0000000000,158.0000000000,287.0000000000,431.0000000000,194.0000000000,9.0000000000
1717675321242,15.0000000000,157.0000000000,286.0000000000,428.0000000000,193.0000000000,9.0000000000
1717675321242,15.0000000000,156.0000000000,284.0000000000,423.0000000000,192.0000000000,9.0000000000
1717675321258,15.0000000000,155.0000000000,281.0000000000,463.0000000000,191.0000000000,9.0000000000
1717675321258,15.0000000000,153.0000000000,280.0000000000,486.0000000000,189.0000000000,9.0000000000
1717675321258,15.0000000000,152.0000000000,278.0000000000,481.0000000000,188.0000000000,9.0000000000
1717675321259,15.0000000000,152.0000000000,275.0000000000,476.0000000000,187.0000000000,9.0000000000
1717675321259,15.0000000000,151.0000000000,274.0000000000,472.0000000000,185.0000000000,9.0000000000
1717675321259,15.0000000000,150.0000000000,272.0000000000,467.0000000000,184.0000000000,10.0000000000
1717675321259,15.0000000000,149.0000000000,271.0000000000,463.0000000000,184.0000000000,10.0000000000
1717675321259,15.0000000000,147.0000000000,268.0000000000,458.0000000000,182.0000000000,9.0000000000
1717675321259,15.0000000000,147.0000000000,267.0000000000,455.0000000000,180.0000000000,9.0000000000
1717675321274,15.0000000000,147.0000000000,265.0000000000,451.0000000000,179.0000000000,9.0000000000
1717675321274,14.0000000000,145.0000000000,263.0000000000,447.0000000000,179.0000000000,9.0000000000
1717675321274,14.0000000000,144.0000000000,262.0000000000,443.0000000000,177.0000000000,9.0000000000
1717675321274,14.0000000000,143.0000000000,277.0000000000,440.0000000000,176.0000000000,9.0000000000
1717675321275,14.0000000000,143.0000000000,275.0000000000,435.0000000000,175.0000000000,9.0000000000
1717675321275,14.0000000000,142.0000000000,273.0000000000,432.0000000000,174.0000000000,9.0000000000
1717675321275,14.0000000000,141.0000000000,271.0000000000,428.0000000000,174.0000000000,9.0000000000
1717675321275,14.0000000000,229.0000000000,269.0000000000,425.0000000000,172.0000000000,9.0000000000
1717675321275,14.0000000000,241.0000000000,267.0000000000,422.0000000000,171.0000000000,9.0000000000
1717675321289,14.0000000000,239.0000000000,265.0000000000,418.0000000000,170.0000000000,9.0000000000
1717675321289,14.0000000000,238.0000000000,263.0000000000,415.0000000000,169.0000000000,9.0000000000
1717675321290,14.0000000000,236.0000000000,262.0000000000,412.0000000000,167.0000000000,8.0000000000
1717675321290,14.0000000000,235.0000000000,260.0000000000,409.0000000000,167.0000000000,8.0000000000
1717675321290,13.0000000000,231.0000000000,259.0000000000,406.0000000000,166.0000000000,8.0000000000
1717675321290,13.0000000000,231.0000000000,257.0000000000,403.0000000000,165.0000000000,8.0000000000
1717675321290,13.0000000000,229.0000000000,257.0000000000,401.0000000000,164.0000000000,7.0000000000
1717675321290,13.0000000000,227.0000000000,276.0000000000,398.0000000000,163.0000000000,7.0000000000
1717675321303,13.0000000000,226.0000000000,275.0000000000,395.0000000000,162.0000000000,7.0000000000
1717675321304,13.0000000000,224.0000000000,273.0000000000,391.0000000000,161.0000000000,8.0000000000
1717675321304,14.0000000000,223.0000000000,271.0000000000,388.0000000000,159.0000000000,7.0000000000
1717675321304,13.0000000000,222.0000000000,269.0000000000,387.0000000000,159.0000000000,7.0000000000
1717675321305,13.0000000000,220.0000000000,267.0000000000,384.0000000000,159.0000000000,7.0000000000
1717675321305,13.0000000000,219.0000000000,265.0000000000,382.0000000000,158.0000000000,7.0000000000
1717675321305,13.0000000000,217.0000000000,263.0000000000,379.0000000000,156.0000000000,7.0000000000
1717675321320,13.0000000000,216.0000000000,262.0000000000,376.0000000000,156.0000000000,7.0000000000
1717675321320,12.0000000000,215.0000000000,260.0000000000,374.0000000000,155.0000000000,7.0000000000
1717675321320,12.0000000000,213.0000000000,259.0000000000,371.0000000000,155.0000000000,7.0000000000
1717675321321,12.0000000000,211.0000000000,257.0000000000,404.0000000000,159.0000000000,9.0000000000
1717675321321,12.0000000000,210.0000000000,255.0000000000,423.0000000000,157.0000000000,9.0000000000
1717675321321,12.0000000000,209.0000000000,253.0000000000,419.0000000000,156.0000000000,9.0000000000
1717675321321,23.0000000000,207.0000000000,252.0000000000,414.0000000000,156.0000000000,9.0000000000
1717675321321,30.0000000000,207.0000000000,251.0000000000,411.0000000000,154.0000000000,9.0000000000
1717675321321,29.0000000000,206.0000000000,248.0000000000,408.0000000000,153.0000000000,8.0000000000
1717675321341,29.0000000000,204.0000000000,247.0000000000,404.0000000000,152.0000000000,8.0000000000
1717675321342,29.0000000000,203.0000000000,246.0000000000,400.0000000000,152.0000000000,8.0000000000
1717675321342,28.0000000000,201.0000000000,244.0000000000,398.0000000000,151.0000000000,7.0000000000
1717675321342,28.0000000000,199.0000000000,243.0000000000,395.0000000000,150.0000000000,8.0000000000
1717675321342,28.0000000000,199.0000000000,241.0000000000,391.0000000000,148.0000000000,7.0000000000
1717675321342,28.0000000000,198.0000000000,240.0000000000,510.0000000000,148.0000000000,8.0000000000
1717675321342,28.0000000000,196.0000000000,239.0000000000,504.0000000000,147.0000000000,8.0000000000
1717675321342,28.0000000000,195.0000000000,237.0000000000,499.0000000000,147.0000000000,7.0000000000
1717675321342,27.0000000000,194.0000000000,236.0000000000,494.0000000000,145.0000000000,7.0000000000
1717675321343,27.0000000000,193.0000000000,234.0000000000,497.0000000000,145.0000000000,7.0000000000
1717675321343,27.0000000000,192.0000000000,233.0000000000,593.0000000000,188.0000000000,7.0000000000
1717675321343,27.0000000000,191.0000000000,231.0000000000,585.0000000000,187.0000000000,7.0000000000
1717675321343,27.0000000000,190.0000000000,230.0000000000,580.0000000000,185.0000000000,7.0000000000
1717675321359,26.0000000000,188.0000000000,228.0000000000,574.0000000000,184.0000000000,7.0000000000
1717675321360,26.0000000000,187.0000000000,227.0000000000,568.0000000000,183.0000000000,7.0000000000
1717675321360,26.0000000000,186.0000000000,226.0000000000,561.0000000000,181.0000000000,7.0000000000
1717675321360,25.0000000000,185.0000000000,224.0000000000,558.0000000000,179.0000000000,7.0000000000
1717675321360,25.0000000000,184.0000000000,224.0000000000,551.0000000000,178.0000000000,7.0000000000
1717675321361,25.0000000000,183.0000000000,222.0000000000,546.0000000000,177.0000000000,7.0000000000
1717675321361,25.0000000000,182.0000000000,221.0000000000,540.0000000000,176.0000000000,7.0000000000
1717675321361,25.0000000000,180.0000000000,280.0000000000,563.0000000000,176.0000000000,7.0000000000
1717675321361,24.0000000000,179.0000000000,276.0000000000,664.0000000000,174.0000000000,7.0000000000
1717675321382,24.0000000000,178.0000000000,275.0000000000,655.0000000000,173.0000000000,7.0000000000
1717675321384,24.0000000000,177.0000000000,272.0000000000,647.0000000000,172.0000000000,7.0000000000
1717675321385,24.0000000000,176.0000000000,270.0000000000,641.0000000000,171.0000000000,7.0000000000
1717675321385,24.0000000000,176.0000000000,268.0000000000,634.0000000000,169.0000000000,7.0000000000
1717675321385,24.0000000000,175.0000000000,267.0000000000,627.0000000000,168.0000000000,7.0000000000
1717675321386,24.0000000000,174.0000000000,265.0000000000,620.0000000000,167.0000000000,7.0000000000
1717675321386,24.0000000000,172.0000000000,263.0000000000,615.0000000000,167.0000000000,7.0000000000
1717675321386,24.0000000000,171.0000000000,261.0000000000,608.0000000000,165.0000000000,7.0000000000
1717675321387,24.0000000000,171.0000000000,260.0000000000,601.0000000000,164.0000000000,7.0000000000
1717675321387,24.0000000000,169.0000000000,258.0000000000,595.0000000000,163.0000000000,7.0000000000
1717675321387,23.0000000000,167.0000000000,255.0000000000,590.0000000000,163.0000000000,7.0000000000
1717675321388,23.0000000000,167.0000000000,255.0000000000,702.0000000000,161.0000000000,7.0000000000
1717675321388,23.0000000000,167.0000000000,253.0000000000,709.0000000000,161.0000000000,7.0000000000
1717675321388,23.0000000000,166.0000000000,252.0000000000,700.0000000000,159.0000000000,7.0000000000
1717675321389,22.0000000000,164.0000000000,249.0000000000,694.0000000000,159.0000000000,7.0000000000
1717675321413,22.0000000000,163.0000000000,248.0000000000,685.0000000000,158.0000000000,7.0000000000
1717675321414,22.0000000000,163.0000000000,247.0000000000,676.0000000000,157.0000000000,7.0000000000
1717675321414,22.0000000000,161.0000000000,246.0000000000,669.0000000000,156.0000000000,7.0000000000
1717675321414,22.0000000000,160.0000000000,243.0000000000,664.0000000000,155.0000000000,7.0000000000
1717675321415,22.0000000000,159.0000000000,242.0000000000,655.0000000000,153.0000000000,7.0000000000
1717675321417,22.0000000000,159.0000000000,240.0000000000,647.0000000000,153.0000000000,7.0000000000
1717675321418,21.0000000000,158.0000000000,239.0000000000,641.0000000000,152.0000000000,7.0000000000
1717675321418,21.0000000000,157.0000000000,238.0000000000,634.0000000000,152.0000000000,7.0000000000
1717675321419,21.0000000000,156.0000000000,236.0000000000,629.0000000000,150.0000000000,7.0000000000
1717675321420,20.0000000000,156.0000000000,235.0000000000,622.0000000000,150.0000000000,7.0000000000
1717675321420,20.0000000000,155.0000000000,233.0000000000,615.0000000000,148.0000000000,7.0000000000
1717675321420,20.0000000000,153.0000000000,231.0000000000,609.0000000000,147.0000000000,7.0000000000
1717675321421,20.0000000000,152.0000000000,231.0000000000,604.0000000000,147.0000000000,7.0000000000
1717675321421,20.0000000000,152.0000000000,228.0000000000,598.0000000000,146.0000000000,7.0000000000
1717675321422,19.0000000000,151.0000000000,227.0000000000,591.0000000000,145.0000000000,7.0000000000
1717675321423,19.0000000000,150.0000000000,226.0000000000,586.0000000000,144.0000000000,7.0000000000
1717675321423,20.0000000000,149.0000000000,224.0000000000,582.0000000000,143.0000000000,7.0000000000
1717675321445,19.0000000000,148.0000000000,224.0000000000,575.0000000000,143.0000000000,6.0000000000
1717675321446,19.0000000000,147.0000000000,223.0000000000,571.0000000000,142.0000000000,6.0000000000
1717675321446,19.0000000000,147.0000000000,221.0000000000,636.0000000000,173.0000000000,6.0000000000
1717675321446,19.0000000000,146.0000000000,220.0000000000,630.0000000000,172.0000000000,6.0000000000
1717675321446,19.0000000000,145.0000000000,218.0000000000,623.0000000000,171.0000000000,6.0000000000
1717675321446,19.0000000000,145.0000000000,217.0000000000,615.0000000000,169.0000000000,6.0000000000
1717675321446,18.0000000000,143.0000000000,216.0000000000,608.0000000000,167.0000000000,6.0000000000
1717675321447,19.0000000000,143.0000000000,215.0000000000,603.0000000000,167.0000000000,6.0000000000
1717675321447,18.0000000000,142.0000000000,214.0000000000,596.0000000000,166.0000000000,6.0000000000
1717675321447,18.0000000000,141.0000000000,212.0000000000,590.0000000000,165.0000000000,6.0000000000
1717675321447,18.0000000000,140.0000000000,211.0000000000,583.0000000000,163.0000000000,6.0000000000
1717675321447,18.0000000000,140.0000000000,210.0000000000,579.0000000000,163.0000000000,6.0000000000
1717675321447,18.0000000000,139.0000000000,209.0000000000,574.0000000000,163.0000000000,6.0000000000
1717675321447,18.0000000000,138.0000000000,207.0000000000,568.0000000000,163.0000000000,6.0000000000
1717675321462,17.0000000000,137.0000000000,207.0000000000,563.0000000000,161.0000000000,6.0000000000
1717675321463,18.0000000000,135.0000000000,324.0000000000,558.0000000000,159.0000000000,6.0000000000
1717675321463,17.0000000000,135.0000000000,329.0000000000,551.0000000000,159.0000000000,6.0000000000
1717675321464,17.0000000000,135.0000000000,327.0000000000,547.0000000000,158.0000000000,6.0000000000
1717675321464,17.0000000000,134.0000000000,324.0000000000,542.0000000000,158.0000000000,6.0000000000
1717675321464,17.0000000000,134.0000000000,322.0000000000,537.0000000000,156.0000000000,6.0000000000
1717675321465,17.0000000000,133.0000000000,369.0000000000,534.0000000000,155.0000000000,6.0000000000
1717675321465,17.0000000000,132.0000000000,366.0000000000,528.0000000000,154.0000000000,5.0000000000
1717675321478,17.0000000000,131.0000000000,364.0000000000,524.0000000000,153.0000000000,6.0000000000
1717675321479,17.0000000000,131.0000000000,359.0000000000,519.0000000000,152.0000000000,5.0000000000
1717675321479,17.0000000000,130.0000000000,357.0000000000,515.0000000000,152.0000000000,6.0000000000
1717675321479,17.0000000000,129.0000000000,355.0000000000,511.0000000000,151.0000000000,5.0000000000
1717675321479,17.0000000000,128.0000000000,352.0000000000,506.0000000000,150.0000000000,5.0000000000
1717675321479,16.0000000000,127.0000000000,350.0000000000,502.0000000000,148.0000000000,5.0000000000
1717675321480,17.0000000000,127.0000000000,347.0000000000,499.0000000000,147.0000000000,5.0000000000
1717675321480,17.0000000000,127.0000000000,344.0000000000,494.0000000000,147.0000000000,5.0000000000
1717675321480,16.0000000000,126.0000000000,343.0000000000,490.0000000000,146.0000000000,4.0000000000
1717675321493,16.0000000000,125.0000000000,339.0000000000,486.0000000000,145.0000000000,5.0000000000
1717675321494,16.0000000000,124.0000000000,337.0000000000,483.0000000000,144.0000000000,4.0000000000
1717675321494,16.0000000000,124.0000000000,335.0000000000,479.0000000000,143.0000000000,4.0000000000
1717675321494,16.0000000000,123.0000000000,333.0000000000,475.0000000000,143.0000000000,4.0000000000
1717675321494,16.0000000000,122.0000000000,331.0000000000,471.0000000000,142.0000000000,4.0000000000
1717675321495,15.0000000000,121.0000000000,327.0000000000,467.0000000000,141.0000000000,5.0000000000
1717675321495,15.0000000000,121.0000000000,326.0000000000,463.0000000000,140.0000000000,4.0000000000
1717675321495,15.0000000000,120.0000000000,324.0000000000,460.0000000000,140.0000000000,4.0000000000
1717675321495,15.0000000000,120.0000000000,322.0000000000,455.0000000000,139.0000000000,29.0000000000
1717675321508,24.0000000000,119.0000000000,319.0000000000,572.0000000000,183.0000000000,31.0000000000
1717675321509,23.0000000000,119.0000000000,317.0000000000,564.0000000000,180.0000000000,31.0000000000
1717675321509,23.0000000000,118.0000000000,316.0000000000,560.0000000000,179.0000000000,30.0000000000
1717675321509,23.0000000000,117.0000000000,312.0000000000,553.0000000000,178.0000000000,30.0000000000
1717675321509,22.0000000000,116.0000000000,311.0000000000,548.0000000000,177.0000000000,29.0000000000
1717675321509,23.0000000000,115.0000000000,308.0000000000,543.0000000000,176.0000000000,30.0000000000
1717675321524,22.0000000000,115.0000000000,307.0000000000,536.0000000000,175.0000000000,29.0000000000
1717675321525,22.0000000000,115.0000000000,304.0000000000,531.0000000000,173.0000000000,29.0000000000
1717675321525,22.0000000000,114.0000000000,303.0000000000,526.0000000000,172.0000000000,29.0000000000
1717675321525,22.0000000000,113.0000000000,300.0000000000,575.0000000000,171.0000000000,28.0000000000
1717675321525,22.0000000000,112.0000000000,299.0000000000,568.0000000000,169.0000000000,28.0000000000
1717675321526,21.0000000000,112.0000000000,296.0000000000,563.0000000000,168.0000000000,28.0000000000
1717675321526,21.0000000000,111.0000000000,295.0000000000,556.0000000000,167.0000000000,28.0000000000
1717675321526,21.0000000000,111.0000000000,293.0000000000,551.0000000000,227.0000000000,28.0000000000
1717675321541,20.0000000000,110.0000000000,291.0000000000,545.0000000000,225.0000000000,28.0000000000
1717675321542,20.0000000000,110.0000000000,289.0000000000,540.0000000000,224.0000000000,28.0000000000
1717675321542,21.0000000000,109.0000000000,287.0000000000,655.0000000000,222.0000000000,27.0000000000
1717675321542,20.0000000000,108.0000000000,285.0000000000,659.0000000000,220.0000000000,27.0000000000
1717675321543,19.0000000000,108.0000000000,283.0000000000,650.0000000000,218.0000000000,27.0000000000
1717675321543,20.0000000000,108.0000000000,281.0000000000,642.0000000000,216.0000000000,27.0000000000
1717675321544,19.0000000000,107.0000000000,280.0000000000,635.0000000000,215.0000000000,26.0000000000
1717675321544,19.0000000000,105.0000000000,278.0000000000,627.0000000000,214.0000000000,26.0000000000
1717675321544,19.0000000000,105.0000000000,276.0000000000,620.0000000000,212.0000000000,25.0000000000
1717675321544,19.0000000000,104.0000000000,275.0000000000,614.0000000000,211.0000000000,25.0000000000
1717675321545,19.0000000000,103.0000000000,273.0000000000,608.0000000000,209.0000000000,25.0000000000
1717675321557,19.0000000000,103.0000000000,271.0000000000,600.0000000000,207.0000000000,25.0000000000
1717675321558,19.0000000000,103.0000000000,270.0000000000,594.0000000000,207.0000000000,25.0000000000
1717675321558,19.0000000000,103.0000000000,268.0000000000,588.0000000000,205.0000000000,24.0000000000
1717675321558,19.0000000000,102.0000000000,267.0000000000,583.0000000000,204.0000000000,25.0000000000
1717675321558,18.0000000000,102.0000000000,263.0000000000,575.0000000000,202.0000000000,24.0000000000
1717675321558,18.0000000000,101.0000000000,263.0000000000,571.0000000000,201.0000000000,24.0000000000
1717675321572,19.0000000000,100.0000000000,262.0000000000,566.0000000000,199.0000000000,24.0000000000
1717675321573,19.0000000000,100.0000000000,259.0000000000,560.0000000000,199.0000000000,24.0000000000
1717675321573,19.0000000000,99.0000000000,278.0000000000,556.0000000000,197.0000000000,24.0000000000
1717675321573,18.0000000000,99.0000000000,315.0000000000,550.0000000000,226.0000000000,24.0000000000
1717675321574,18.0000000000,98.0000000000,312.0000000000,543.0000000000,247.0000000000,24.0000000000
1717675321574,18.0000000000,97.0000000000,310.0000000000,540.0000000000,243.0000000000,24.0000000000
1717675321574,17.0000000000,97.0000000000,310.0000000000,536.0000000000,242.0000000000,24.0000000000
1717675321574,17.0000000000,97.0000000000,307.0000000000,530.0000000000,240.0000000000,23.0000000000
1717675321574,17.0000000000,96.0000000000,305.0000000000,525.0000000000,239.0000000000,23.0000000000
1717675321591,17.0000000000,96.0000000000,303.0000000000,521.0000000000,237.0000000000,23.0000000000
1717675321591,18.0000000000,96.0000000000,300.0000000000,516.0000000000,236.0000000000,23.0000000000
1717675321592,20.0000000000,95.0000000000,299.0000000000,512.0000000000,233.0000000000,23.0000000000
1717675321592,19.0000000000,94.0000000000,297.0000000000,571.0000000000,231.0000000000,22.0000000000
1717675321592,19.0000000000,94.0000000000,295.0000000000,565.0000000000,231.0000000000,22.0000000000
1717675321592,19.0000000000,94.0000000000,292.0000000000,559.0000000000,229.0000000000,22.0000000000
1717675321592,19.0000000000,93.0000000000,291.0000000000,552.0000000000,227.0000000000,22.0000000000
1717675321592,19.0000000000,92.0000000000,289.0000000000,547.0000000000,226.0000000000,22.0000000000
1717675321592,19.0000000000,92.0000000000,287.0000000000,541.0000000000,225.0000000000,22.0000000000
1717675321615,19.0000000000,92.0000000000,285.0000000000,537.0000000000,224.0000000000,22.0000000000
1717675321616,19.0000000000,91.0000000000,283.0000000000,531.0000000000,222.0000000000,21.0000000000
1717675321616,19.0000000000,91.0000000000,281.0000000000,527.0000000000,220.0000000000,21.0000000000
1717675321616,18.0000000000,90.0000000000,280.0000000000,521.0000000000,219.0000000000,21.0000000000
1717675321616,18.0000000000,89.0000000000,278.0000000000,518.0000000000,217.0000000000,20.0000000000
1717675321616,18.0000000000,89.0000000000,332.0000000000,512.0000000000,216.0000000000,20.0000000000
1717675321616,17.0000000000,88.0000000000,352.0000000000,508.0000000000,215.0000000000,19.0000000000
1717675321616,17.0000000000,88.0000000000,349.0000000000,504.0000000000,214.0000000000,20.0000000000
1717675321616,17.0000000000,88.0000000000,371.0000000000,499.0000000000,212.0000000000,20.0000000000
1717675321616,18.0000000000,88.0000000000,368.0000000000,495.0000000000,211.0000000000,19.0000000000
1717675321616,17.0000000000,87.0000000000,366.0000000000,491.0000000000,209.0000000000,19.0000000000
1717675321616,17.0000000000,87.0000000000,363.0000000000,487.0000000000,208.0000000000,20.0000000000
1717675321617,17.0000000000,86.0000000000,359.0000000000,483.0000000000,207.0000000000,19.0000000000
1717675321630,17.0000000000,86.0000000000,358.0000000000,480.0000000000,206.0000000000,19.0000000000
1717675321632,17.0000000000,85.0000000000,355.0000000000,475.0000000000,204.0000000000,19.0000000000
1717675321632,17.0000000000,84.0000000000,352.0000000000,472.0000000000,203.0000000000,19.0000000000
1717675321632,17.0000000000,84.0000000000,350.0000000000,467.0000000000,202.0000000000,19.0000000000
1717675321632,16.0000000000,84.0000000000,347.0000000000,463.0000000000,199.0000000000,19.0000000000
1717675321632,16.0000000000,83.0000000000,345.0000000000,460.0000000000,199.0000000000,19.0000000000
1717675321632,16.0000000000,83.0000000000,343.0000000000,455.0000000000,199.0000000000,19.0000000000
1717675321632,15.0000000000,83.0000000000,339.0000000000,454.0000000000,197.0000000000,18.0000000000
1717675321633,15.0000000000,82.0000000000,337.0000000000,449.0000000000,195.0000000000,19.0000000000
1717675321647,15.0000000000,81.0000000000,335.0000000000,446.0000000000,195.0000000000,18.0000000000
1717675321648,15.0000000000,81.0000000000,333.0000000000,496.0000000000,193.0000000000,18.0000000000
1717675321648,18.0000000000,81.0000000000,331.0000000000,492.0000000000,192.0000000000,18.0000000000
1717675321649,18.0000000000,80.0000000000,327.0000000000,487.0000000000,192.0000000000,18.0000000000
1717675321649,17.0000000000,80.0000000000,326.0000000000,483.0000000000,191.0000000000,18.0000000000
1717675321649,17.0000000000,79.0000000000,324.0000000000,478.0000000000,189.0000000000,17.0000000000
1717675321649,17.0000000000,79.0000000000,322.0000000000,473.0000000000,188.0000000000,17.0000000000
1717675321649,17.0000000000,79.0000000000,319.0000000000,470.0000000000,187.0000000000,17.0000000000
1717675321662,17.0000000000,79.0000000000,318.0000000000,465.0000000000,185.0000000000,17.0000000000
1717675321663,17.0000000000,78.0000000000,316.0000000000,461.0000000000,185.0000000000,17.0000000000
1717675321663,17.0000000000,78.0000000000,313.0000000000,457.0000000000,184.0000000000,17.0000000000
1717675321663,17.0000000000,77.0000000000,312.0000000000,454.0000000000,183.0000000000,17.0000000000
1717675321664,17.0000000000,77.0000000000,310.0000000000,449.0000000000,182.0000000000,16.0000000000
1717675321664,16.0000000000,76.0000000000,307.0000000000,446.0000000000,180.0000000000,16.0000000000
1717675321664,16.0000000000,76.0000000000,305.0000000000,441.0000000000,179.0000000000,17.0000000000
1717675321664,16.0000000000,76.0000000000,304.0000000000,440.0000000000,178.0000000000,16.0000000000
1717675321664,16.0000000000,76.0000000000,302.0000000000,435.0000000000,177.0000000000,16.0000000000
1717675321679,15.0000000000,75.0000000000,300.0000000000,432.0000000000,176.0000000000,15.0000000000
1717675321680,15.0000000000,75.0000000000,297.0000000000,429.0000000000,176.0000000000,15.0000000000
1717675321680,15.0000000000,74.0000000000,295.0000000000,426.0000000000,174.0000000000,15.0000000000
1717675321681,15.0000000000,73.0000000000,294.0000000000,423.0000000000,173.0000000000,16.0000000000
1717675321681,15.0000000000,73.0000000000,292.0000000000,419.0000000000,172.0000000000,15.0000000000
1717675321681,15.0000000000,73.0000000000,290.0000000000,415.0000000000,172.0000000000,15.0000000000
1717675321681,15.0000000000,71.0000000000,288.0000000000,414.0000000000,170.0000000000,15.0000000000
1717675321681,15.0000000000,71.0000000000,318.0000000000,411.0000000000,169.0000000000,15.0000000000
1717675321681,15.0000000000,71.0000000000,342.0000000000,408.0000000000,167.0000000000,15.0000000000
1717675321696,15.0000000000,71.0000000000,338.0000000000,404.0000000000,167.0000000000,15.0000000000
1717675321697,15.0000000000,71.0000000000,335.0000000000,402.0000000000,167.0000000000,15.0000000000
1717675321697,15.0000000000,71.0000000000,333.0000000000,411.0000000000,207.0000000000,15.0000000000
1717675321697,15.0000000000,71.0000000000,330.0000000000,448.0000000000,206.0000000000,15.0000000000
1717675321697,15.0000000000,70.0000000000,327.0000000000,443.0000000000,204.0000000000,15.0000000000
1717675321697,15.0000000000,70.0000000000,326.0000000000,440.0000000000,203.0000000000,15.0000000000
1717675321698,14.0000000000,70.0000000000,323.0000000000,435.0000000000,201.0000000000,15.0000000000
1717675321698,15.0000000000,69.0000000000,321.0000000000,432.0000000000,199.0000000000,15.0000000000
1717675321698,15.0000000000,69.0000000000,319.0000000000,428.0000000000,199.0000000000,14.0000000000
1717675321711,15.0000000000,68.0000000000,316.0000000000,423.0000000000,197.0000000000,14.0000000000
1717675321711,15.0000000000,68.0000000000,315.0000000000,421.0000000000,195.0000000000,14.0000000000
1717675321711,14.0000000000,67.0000000000,313.0000000000,417.0000000000,194.0000000000,14.0000000000
1717675321712,15.0000000000,67.0000000000,312.0000000000,414.0000000000,193.0000000000,14.0000000000
1717675321712,14.0000000000,67.0000000000,310.0000000000,411.0000000000,192.0000000000,14.0000000000
1717675321712,14.0000000000,67.0000000000,307.0000000000,408.0000000000,191.0000000000,14.0000000000
1717675321712,14.0000000000,67.0000000000,305.0000000000,408.0000000000,190.0000000000,14.0000000000
1717675321712,14.0000000000,65.0000000000,303.0000000000,540.0000000000,188.0000000000,14.0000000000
1717675321727,14.0000000000,65.0000000000,301.0000000000,534.0000000000,187.0000000000,13.0000000000
1717675321729,28.0000000000,65.0000000000,300.0000000000,529.0000000000,185.0000000000,13.0000000000
1717675321729,49.0000000000,65.0000000000,297.0000000000,524.0000000000,185.0000000000,14.0000000000
1717675321729,48.0000000000,65.0000000000,295.0000000000,518.0000000000,184.0000000000,13.0000000000
1717675321729,48.0000000000,64.0000000000,293.0000000000,513.0000000000,183.0000000000,13.0000000000
1717675321730,48.0000000000,63.0000000000,291.0000000000,509.0000000000,181.0000000000,13.0000000000
1717675321730,47.0000000000,63.0000000000,289.0000000000,504.0000000000,180.0000000000,13.0000000000
1717675321731,47.0000000000,63.0000000000,287.0000000000,499.0000000000,179.0000000000,12.0000000000
1717675321731,47.0000000000,63.0000000000,286.0000000000,494.0000000000,178.0000000000,13.0000000000
1717675321754,47.0000000000,63.0000000000,284.0000000000,494.0000000000,177.0000000000,13.0000000000
1717675321754,46.0000000000,63.0000000000,283.0000000000,489.0000000000,176.0000000000,13.0000000000
1717675321755,46.0000000000,62.0000000000,281.0000000000,484.0000000000,175.0000000000,13.0000000000
1717675321755,46.0000000000,62.0000000000,279.0000000000,480.0000000000,174.0000000000,12.0000000000
1717675321755,46.0000000000,62.0000000000,278.0000000000,476.0000000000,172.0000000000,12.0000000000
1717675321755,44.0000000000,61.0000000000,275.0000000000,472.0000000000,172.0000000000,12.0000000000
1717675321755,44.0000000000,61.0000000000,273.0000000000,467.0000000000,171.0000000000,12.0000000000
1717675321755,44.0000000000,61.0000000000,272.0000000000,463.0000000000,169.0000000000,12.0000000000
1717675321756,44.0000000000,60.0000000000,271.0000000000,460.0000000000,167.0000000000,12.0000000000
1717675321756,44.0000000000,60.0000000000,269.0000000000,456.0000000000,167.0000000000,12.0000000000
1717675321756,43.0000000000,60.0000000000,268.0000000000,452.0000000000,166.0000000000,12.0000000000
1717675321756,43.0000000000,60.0000000000,267.0000000000,448.0000000000,166.0000000000,12.0000000000
1717675321756,43.0000000000,60.0000000000,263.0000000000,513.0000000000,165.0000000000,12.0000000000
1717675321771,43.0000000000,59.0000000000,263.0000000000,508.0000000000,163.0000000000,12.0000000000
1717675321772,41.0000000000,59.0000000000,261.0000000000,504.0000000000,163.0000000000,12.0000000000
1717675321772,42.0000000000,58.0000000000,259.0000000000,498.0000000000,162.0000000000,12.0000000000
1717675321772,41.0000000000,59.0000000000,258.0000000000,493.0000000000,161.0000000000,11.0000000000
1717675321772,41.0000000000,57.0000000000,255.0000000000,489.0000000000,159.0000000000,12.0000000000
1717675321772,41.0000000000,57.0000000000,255.0000000000,485.0000000000,159.0000000000,12.0000000000
1717675321773,40.0000000000,57.0000000000,254.0000000000,519.0000000000,159.0000000000,11.0000000000
1717675321773,39.0000000000,57.0000000000,252.0000000000,534.0000000000,195.0000000000,11.0000000000
1717675321773,39.0000000000,57.0000000000,251.0000000000,529.0000000000,193.0000000000,11.0000000000
1717675321789,39.0000000000,56.0000000000,249.0000000000,524.0000000000,192.0000000000,11.0000000000
1717675321791,39.0000000000,56.0000000000,248.0000000000,518.0000000000,191.0000000000,11.0000000000
1717675321792,39.0000000000,56.0000000000,247.0000000000,513.0000000000,190.0000000000,11.0000000000
1717675321793,39.0000000000,56.0000000000,245.0000000000,509.0000000000,188.0000000000,11.0000000000
1717675321793,39.0000000000,55.0000000000,243.0000000000,504.0000000000,186.0000000000,10.0000000000
1717675321794,39.0000000000,55.0000000000,242.0000000000,499.0000000000,185.0000000000,11.0000000000
1717675321794,38.0000000000,55.0000000000,241.0000000000,495.0000000000,184.0000000000,10.0000000000
1717675321794,38.0000000000,55.0000000000,240.0000000000,491.0000000000,187.0000000000,11.0000000000
1717675321795,38.0000000000,55.0000000000,238.0000000000,487.0000000000,191.0000000000,10.0000000000
1717675321795,38.0000000000,54.0000000000,237.0000000000,481.0000000000,190.0000000000,10.0000000000
1717675321795,38.0000000000,54.0000000000,236.0000000000,478.0000000000,188.0000000000,10.0000000000
1717675321795,36.0000000000,53.0000000000,233.0000000000,473.0000000000,188.0000000000,9.0000000000
1717675321795,36.0000000000,54.0000000000,232.0000000000,470.0000000000,186.0000000000,10.0000000000
1717675321814,36.0000000000,52.0000000000,231.0000000000,465.0000000000,185.0000000000,11.0000000000
1717675321816,52.0000000000,53.0000000000,231.0000000000,461.0000000000,184.0000000000,11.0000000000
1717675321816,51.0000000000,52.0000000000,229.0000000000,459.0000000000,182.0000000000,10.0000000000
1717675321816,51.0000000000,52.0000000000,227.0000000000,455.0000000000,181.0000000000,10.0000000000
1717675321817,51.0000000000,52.0000000000,227.0000000000,450.0000000000,180.0000000000,11.0000000000
1717675321817,51.0000000000,54.0000000000,225.0000000000,447.0000000000,179.0000000000,11.0000000000
1717675321817,51.0000000000,54.0000000000,224.0000000000,444.0000000000,177.0000000000,10.0000000000
1717675321817,50.0000000000,53.0000000000,222.0000000000,440.0000000000,177.0000000000,11.0000000000
1717675321818,49.0000000000,53.0000000000,222.0000000000,435.0000000000,176.0000000000,10.0000000000
1717675321818,49.0000000000,89.0000000000,220.0000000000,432.0000000000,175.0000000000,9.0000000000
1717675321818,48.0000000000,88.0000000000,219.0000000000,430.0000000000,173.0000000000,10.0000000000
1717675321841,48.0000000000,88.0000000000,217.0000000000,425.0000000000,172.0000000000,10.0000000000
1717675321842,48.0000000000,87.0000000000,217.0000000000,422.0000000000,172.0000000000,10.0000000000
1717675321842,48.0000000000,86.0000000000,216.0000000000,429.0000000000,171.0000000000,9.0000000000
1717675321843,48.0000000000,86.0000000000,215.0000000000,583.0000000000,220.0000000000,10.0000000000
1717675321843,47.0000000000,84.0000000000,214.0000000000,575.0000000000,219.0000000000,9.0000000000
1717675321843,47.0000000000,84.0000000000,212.0000000000,571.0000000000,216.0000000000,9.0000000000
1717675321844,46.0000000000,84.0000000000,211.0000000000,563.0000000000,216.0000000000,9.0000000000
1717675321844,46.0000000000,83.0000000000,210.0000000000,558.0000000000,214.0000000000,9.0000000000
1717675321844,46.0000000000,83.0000000000,209.0000000000,629.0000000000,212.0000000000,9.0000000000
1717675321844,46.0000000000,82.0000000000,208.0000000000,620.0000000000,211.0000000000,9.0000000000
1717675321845,45.0000000000,81.0000000000,207.0000000000,615.0000000000,210.0000000000,9.0000000000
1717675321845,45.0000000000,81.0000000000,206.0000000000,607.0000000000,208.0000000000,9.0000000000
1717675321845,45.0000000000,81.0000000000,205.0000000000,600.0000000000,207.0000000000,9.0000000000
1717675321845,45.0000000000,79.0000000000,204.0000000000,647.0000000000,206.0000000000,9.0000000000
1717675321846,44.0000000000,79.0000000000,203.0000000000,639.0000000000,205.0000000000,9.0000000000
1717675321846,44.0000000000,79.0000000000,201.0000000000,633.0000000000,204.0000000000,9.0000000000
1717675321908,44.0000000000,79.0000000000,199.0000000000,625.0000000000,203.0000000000,9.0000000000
1717675321909,44.0000000000,78.0000000000,199.0000000000,619.0000000000,201.0000000000,9.0000000000
1717675321909,44.0000000000,78.0000000000,199.0000000000,614.0000000000,199.0000000000,8.0000000000
1717675321909,43.0000000000,77.0000000000,198.0000000000,606.0000000000,199.0000000000,9.0000000000
1717675321909,43.0000000000,76.0000000000,196.0000000000,601.0000000000,197.0000000000,7.0000000000
1717675321910,41.0000000000,76.0000000000,195.0000000000,595.0000000000,195.0000000000,9.0000000000
1717675321910,41.0000000000,76.0000000000,195.0000000000,590.0000000000,195.0000000000,8.0000000000
1717675321910,41.0000000000,76.0000000000,193.0000000000,583.0000000000,193.0000000000,7.0000000000
1717675321910,41.0000000000,75.0000000000,192.0000000000,579.0000000000,193.0000000000,7.0000000000
1717675321911,41.0000000000,75.0000000000,263.0000000000,574.0000000000,191.0000000000,7.0000000000
1717675321911,41.0000000000,74.0000000000,262.0000000000,568.0000000000,191.0000000000,7.0000000000
1717675321911,40.0000000000,73.0000000000,259.0000000000,564.0000000000,190.0000000000,7.0000000000
1717675321911,39.0000000000,73.0000000000,259.0000000000,558.0000000000,188.0000000000,7.0000000000
1717675321912,39.0000000000,73.0000000000,255.0000000000,552.0000000000,187.0000000000,7.0000000000
1717675321912,39.0000000000,72.0000000000,255.0000000000,548.0000000000,185.0000000000,7.0000000000
1717675321912,39.0000000000,71.0000000000,253.0000000000,543.0000000000,185.0000000000,7.0000000000
1717675321912,39.0000000000,71.0000000000,251.0000000000,539.0000000000,184.0000000000,7.0000000000
1717675321913,39.0000000000,71.0000000000,249.0000000000,534.0000000000,183.0000000000,7.0000000000
1717675321913,39.0000000000,71.0000000000,248.0000000000,529.0000000000,182.0000000000,7.0000000000
1717675321913,39.0000000000,70.0000000000,247.0000000000,525.0000000000,180.0000000000,7.0000000000
1717675321913,38.0000000000,70.0000000000,245.0000000000,520.0000000000,179.0000000000,7.0000000000
1717675321914,38.0000000000,69.0000000000,243.0000000000,575.0000000000,179.0000000000,7.0000000000
1717675321914,38.0000000000,68.0000000000,242.0000000000,568.0000000000,177.0000000000,7.0000000000
1717675321914,38.0000000000,68.0000000000,241.0000000000,589.0000000000,210.0000000000,7.0000000000
1717675321914,38.0000000000,68.0000000000,239.0000000000,611.0000000000,207.0000000000,7.0000000000
1717675321914,37.0000000000,67.0000000000,238.0000000000,604.0000000000,207.0000000000,7.0000000000
1717675321914,37.0000000000,67.0000000000,299.0000000000,599.0000000000,205.0000000000,7.0000000000
1717675321914,36.0000000000,67.0000000000,295.0000000000,591.0000000000,204.0000000000,7.0000000000
1717675321914,36.0000000000,67.0000000000,294.0000000000,587.0000000000,203.0000000000,7.0000000000
1717675321916,36.0000000000,66.0000000000,291.0000000000,580.0000000000,201.0000000000,7.0000000000
1717675321916,36.0000000000,66.0000000000,289.0000000000,575.0000000000,199.0000000000,7.0000000000
1717675321916,36.0000000000,65.0000000000,287.0000000000,570.0000000000,199.0000000000,7.0000000000
1717675321916,35.0000000000,64.0000000000,286.0000000000,564.0000000000,198.0000000000,7.0000000000
1717675321916,35.0000000000,64.0000000000,284.0000000000,560.0000000000,196.0000000000,7.0000000000
1717675321916,35.0000000000,64.0000000000,282.0000000000,554.0000000000,195.0000000000,7.0000000000
1717675321917,35.0000000000,63.0000000000,280.0000000000,550.0000000000,193.0000000000,7.0000000000
1717675321917,35.0000000000,63.0000000000,278.0000000000,543.0000000000,192.0000000000,7.0000000000
1717675321917,35.0000000000,63.0000000000,276.0000000000,540.0000000000,192.0000000000,7.0000000000
1717675321917,34.0000000000,63.0000000000,275.0000000000,536.0000000000,191.0000000000,7.0000000000
1717675321917,33.0000000000,62.0000000000,326.0000000000,529.0000000000,190.0000000000,7.0000000000
1717675321918,34.0000000000,62.0000000000,356.0000000000,526.0000000000,188.0000000000,7.0000000000
1717675321944,33.0000000000,62.0000000000,353.0000000000,521.0000000000,187.0000000000,7.0000000000
1717675321947,33.0000000000,61.0000000000,351.0000000000,516.0000000000,185.0000000000,6.0000000000
1717675321947,33.0000000000,60.0000000000,348.0000000000,513.0000000000,184.0000000000,6.0000000000
1717675321948,33.0000000000,60.0000000000,345.0000000000,508.0000000000,184.0000000000,7.0000000000
1717675321948,33.0000000000,60.0000000000,343.0000000000,504.0000000000,183.0000000000,6.0000000000
1717675321949,32.0000000000,60.0000000000,340.0000000000,499.0000000000,182.0000000000,6.0000000000
1717675321949,31.0000000000,60.0000000000,338.0000000000,496.0000000000,180.0000000000,6.0000000000
1717675321949,31.0000000000,59.0000000000,335.0000000000,492.0000000000,179.0000000000,6.0000000000
1717675321950,31.0000000000,59.0000000000,334.0000000000,487.0000000000,178.0000000000,6.0000000000
1717675321950,31.0000000000,59.0000000000,332.0000000000,484.0000000000,177.0000000000,6.0000000000
1717675321950,31.0000000000,58.0000000000,329.0000000000,480.0000000000,176.0000000000,6.0000000000
1717675321950,31.0000000000,57.0000000000,327.0000000000,477.0000000000,175.0000000000,6.0000000000
1717675321951,31.0000000000,57.0000000000,324.0000000000,473.0000000000,174.0000000000,6.0000000000
1717675321951,31.0000000000,57.0000000000,323.0000000000,469.0000000000,173.0000000000,6.0000000000
1717675321951,31.0000000000,56.0000000000,321.0000000000,467.0000000000,172.0000000000,6.0000000000
1717675321952,30.0000000000,56.0000000000,319.0000000000,463.0000000000,171.0000000000,6.0000000000
1717675321952,31.0000000000,56.0000000000,316.0000000000,460.0000000000,170.0000000000,6.0000000000
1717675321952,30.0000000000,56.0000000000,380.0000000000,455.0000000000,169.0000000000,6.0000000000
1717675321953,30.0000000000,56.0000000000,395.0000000000,451.0000000000,167.0000000000,6.0000000000
1717675322002,30.0000000000,56.0000000000,391.0000000000,449.0000000000,167.0000000000,6.0000000000
1717675322004,30.0000000000,55.0000000000,387.0000000000,445.0000000000,167.0000000000,6.0000000000
1717675322005,30.0000000000,55.0000000000,385.0000000000,443.0000000000,166.0000000000,6.0000000000
1717675322006,30.0000000000,54.0000000000,383.0000000000,439.0000000000,164.0000000000,6.0000000000
1717675322007,30.0000000000,54.0000000000,380.0000000000,435.0000000000,163.0000000000,6.0000000000
1717675322008,29.0000000000,54.0000000000,376.0000000000,433.0000000000,163.0000000000,6.0000000000
1717675322009,29.0000000000,54.0000000000,374.0000000000,429.0000000000,161.0000000000,6.0000000000
1717675322009,29.0000000000,53.0000000000,371.0000000000,427.0000000000,161.0000000000,5.0000000000
1717675322010,28.0000000000,52.0000000000,369.0000000000,423.0000000000,159.0000000000,5.0000000000
1717675322010,28.0000000000,52.0000000000,366.0000000000,420.0000000000,159.0000000000,5.0000000000
1717675322011,28.0000000000,52.0000000000,364.0000000000,417.0000000000,158.0000000000,5.0000000000
1717675322011,28.0000000000,52.0000000000,361.0000000000,414.0000000000,158.0000000000,5.0000000000
1717675322012,28.0000000000,52.0000000000,359.0000000000,412.0000000000,156.0000000000,5.0000000000
1717675322012,28.0000000000,51.0000000000,356.0000000000,408.0000000000,156.0000000000,5.0000000000
1717675322013,28.0000000000,51.0000000000,354.0000000000,406.0000000000,155.0000000000,5.0000000000
1717675322013,28.0000000000,51.0000000000,352.0000000000,403.0000000000,154.0000000000,5.0000000000
1717675322014,28.0000000000,51.0000000000,350.0000000000,399.0000000000,153.0000000000,5.0000000000
1717675322014,27.0000000000,50.0000000000,348.0000000000,398.0000000000,152.0000000000,5.0000000000
1717675322015,27.0000000000,50.0000000000,345.0000000000,395.0000000000,152.0000000000,4.0000000000
1717675322016,27.0000000000,50.0000000000,343.0000000000,391.0000000000,151.0000000000,4.0000000000
1717675322016,27.0000000000,49.0000000000,340.0000000000,390.0000000000,150.0000000000,4.0000000000
1717675322016,27.0000000000,49.0000000000,339.0000000000,387.0000000000,149.0000000000,4.0000000000
1717675322017,27.0000000000,49.0000000000,335.0000000000,384.0000000000,148.0000000000,5.0000000000
1717675322017,26.0000000000,49.0000000000,334.0000000000,382.0000000000,147.0000000000,4.0000000000
1717675322017,26.0000000000,48.0000000000,332.0000000000,380.0000000000,147.0000000000,4.0000000000
1717675322017,31.0000000000,48.0000000000,330.0000000000,376.0000000000,146.0000000000,4.0000000000
1717675322017,31.0000000000,48.0000000000,327.0000000000,375.0000000000,145.0000000000,4.0000000000
1717675322017,31.0000000000,48.0000000000,326.0000000000,372.0000000000,144.0000000000,4.0000000000
1717675322017,31.0000000000,48.0000000000,323.0000000000,369.0000000000,143.0000000000,4.0000000000
1717675322018,31.0000000000,47.0000000000,321.0000000000,368.0000000000,143.0000000000,4.0000000000
1717675322018,31.0000000000,47.0000000000,319.0000000000,365.0000000000,143.0000000000,4.0000000000
1717675322018,30.0000000000,47.0000000000,318.0000000000,363.0000000000,142.0000000000,4.0000000000
1717675322018,31.0000000000,47.0000000000,316.0000000000,360.0000000000,143.0000000000,4.0000000000
1717675322018,30.0000000000,47.0000000000,315.0000000000,358.0000000000,143.0000000000,4.0000000000
1717675322018,30.0000000000,46.0000000000,313.0000000000,356.0000000000,142.0000000000,4.0000000000
1717675322019,30.0000000000,46.0000000000,312.0000000000,353.0000000000,142.0000000000,4.0000000000
1717675322042,30.0000000000,46.0000000000,310.0000000000,352.0000000000,140.0000000000,4.0000000000
1717675322042,29.0000000000,46.0000000000,308.0000000000,350.0000000000,140.0000000000,4.0000000000
1717675322042,29.0000000000,45.0000000000,306.0000000000,364.0000000000,140.0000000000,3.0000000000
1717675322043,29.0000000000,45.0000000000,304.0000000000,414.0000000000,139.0000000000,4.0000000000
1717675322043,29.0000000000,45.0000000000,303.0000000000,410.0000000000,137.0000000000,3.0000000000
1717675322043,29.0000000000,44.0000000000,301.0000000000,408.0000000000,227.0000000000,4.0000000000
1717675322043,28.0000000000,44.0000000000,299.0000000000,403.0000000000,225.0000000000,3.0000000000
1717675322043,28.0000000000,44.0000000000,297.0000000000,400.0000000000,223.0000000000,3.0000000000
1717675322043,28.0000000000,44.0000000000,295.0000000000,396.0000000000,222.0000000000,3.0000000000
1717675322043,28.0000000000,44.0000000000,294.0000000000,393.0000000000,220.0000000000,3.0000000000
1717675322043,28.0000000000,43.0000000000,292.0000000000,391.0000000000,219.0000000000,3.0000000000
1717675322043,28.0000000000,44.0000000000,291.0000000000,387.0000000000,217.0000000000,3.0000000000
1717675322043,27.0000000000,43.0000000000,289.0000000000,385.0000000000,216.0000000000,3.0000000000
1717675322043,27.0000000000,43.0000000000,287.0000000000,382.0000000000,215.0000000000,3.0000000000
1717675322044,27.0000000000,43.0000000000,285.0000000000,379.0000000000,213.0000000000,3.0000000000
1717675322044,27.0000000000,43.0000000000,284.0000000000,376.0000000000,211.0000000000,3.0000000000
1717675322069,27.0000000000,72.0000000000,283.0000000000,373.0000000000,211.0000000000,3.0000000000
1717675322071,26.0000000000,72.0000000000,280.0000000000,371.0000000000,209.0000000000,3.0000000000
1717675322072,26.0000000000,71.0000000000,279.0000000000,368.0000000000,207.0000000000,3.0000000000
1717675322073,26.0000000000,71.0000000000,278.0000000000,364.0000000000,206.0000000000,3.0000000000
1717675322073,26.0000000000,71.0000000000,275.0000000000,363.0000000000,205.0000000000,3.0000000000
1717675322074,25.0000000000,71.0000000000,274.0000000000,359.0000000000,204.0000000000,3.0000000000
1717675322075,25.0000000000,70.0000000000,272.0000000000,358.0000000000,203.0000000000,3.0000000000
1717675322075,25.0000000000,69.0000000000,271.0000000000,355.0000000000,201.0000000000,3.0000000000
1717675322076,25.0000000000,68.0000000000,270.0000000000,352.0000000000,199.0000000000,3.0000000000
1717675322077,25.0000000000,68.0000000000,268.0000000000,350.0000000000,199.0000000000,3.0000000000
1717675322077,25.0000000000,67.0000000000,312.0000000000,348.0000000000,198.0000000000,3.0000000000
1717675322078,25.0000000000,67.0000000000,307.0000000000,345.0000000000,196.0000000000,3.0000000000
1717675322078,24.0000000000,67.0000000000,306.0000000000,344.0000000000,195.0000000000,3.0000000000
1717675322079,24.0000000000,67.0000000000,304.0000000000,355.0000000000,195.0000000000,3.0000000000
1717675322079,24.0000000000,67.0000000000,302.0000000000,352.0000000000,193.0000000000,3.0000000000
1717675322080,24.0000000000,65.0000000000,300.0000000000,348.0000000000,192.0000000000,3.0000000000
1717675322080,24.0000000000,65.0000000000,297.0000000000,347.0000000000,191.0000000000,3.0000000000
1717675322081,24.0000000000,65.0000000000,295.0000000000,344.0000000000,190.0000000000,3.0000000000
1717675322081,24.0000000000,65.0000000000,294.0000000000,342.0000000000,189.0000000000,3.0000000000
1717675322082,24.0000000000,63.0000000000,292.0000000000,339.0000000000,188.0000000000,3.0000000000
1717675322082,24.0000000000,63.0000000000,290.0000000000,337.0000000000,187.0000000000,3.0000000000
1717675322103,24.0000000000,63.0000000000,287.0000000000,335.0000000000,185.0000000000,3.0000000000
1717675322104,24.0000000000,63.0000000000,286.0000000000,333.0000000000,184.0000000000,3.0000000000
1717675322104,23.0000000000,63.0000000000,284.0000000000,331.0000000000,184.0000000000,3.0000000000
1717675322104,24.0000000000,62.0000000000,283.0000000000,425.0000000000,182.0000000000,3.0000000000
1717675322105,23.0000000000,62.0000000000,280.0000000000,421.0000000000,182.0000000000,3.0000000000
1717675322105,23.0000000000,62.0000000000,279.0000000000,416.0000000000,180.0000000000,3.0000000000
1717675322105,23.0000000000,61.0000000000,278.0000000000,412.0000000000,179.0000000000,3.0000000000
1717675322105,23.0000000000,61.0000000000,275.0000000000,409.0000000000,178.0000000000,3.0000000000
1717675322106,22.0000000000,60.0000000000,274.0000000000,406.0000000000,177.0000000000,3.0000000000
1717675322106,22.0000000000,60.0000000000,272.0000000000,403.0000000000,176.0000000000,3.0000000000
1717675322106,22.0000000000,60.0000000000,271.0000000000,420.0000000000,176.0000000000,3.0000000000
1717675322107,22.0000000000,60.0000000000,269.0000000000,448.0000000000,174.0000000000,3.0000000000
1717675322107,22.0000000000,59.0000000000,267.0000000000,444.0000000000,173.0000000000,3.0000000000
1717675322107,22.0000000000,59.0000000000,265.0000000000,440.0000000000,172.0000000000,3.0000000000
1717675322126,22.0000000000,59.0000000000,263.0000000000,437.0000000000,171.0000000000,3.0000000000
1717675322127,22.0000000000,58.0000000000,263.0000000000,460.0000000000,170.0000000000,3.0000000000
1717675322127,21.0000000000,57.0000000000,262.0000000000,455.0000000000,169.0000000000,3.0000000000
1717675322128,21.0000000000,57.0000000000,259.0000000000,452.0000000000,167.0000000000,3.0000000000
1717675322128,21.0000000000,57.0000000000,259.0000000000,448.0000000000,167.0000000000,3.0000000000
1717675322128,20.0000000000,56.0000000000,257.0000000000,444.0000000000,167.0000000000,3.0000000000
1717675322128,20.0000000000,56.0000000000,255.0000000000,440.0000000000,166.0000000000,3.0000000000
1717675322128,20.0000000000,56.0000000000,254.0000000000,437.0000000000,164.0000000000,3.0000000000
1717675322129,20.0000000000,56.0000000000,253.0000000000,433.0000000000,163.0000000000,3.0000000000
1717675322129,20.0000000000,55.0000000000,252.0000000000,463.0000000000,163.0000000000,3.0000000000
1717675322129,20.0000000000,55.0000000000,249.0000000000,496.0000000000,167.0000000000,3.0000000000
1717675322151,19.0000000000,55.0000000000,249.0000000000,491.0000000000,167.0000000000,3.0000000000
1717675322152,19.0000000000,54.0000000000,248.0000000000,487.0000000000,164.0000000000,3.0000000000
1717675322152,19.0000000000,54.0000000000,246.0000000000,482.0000000000,163.0000000000,3.0000000000
1717675322152,19.0000000000,54.0000000000,245.0000000000,477.0000000000,163.0000000000,3.0000000000
1717675322152,20.0000000000,53.0000000000,243.0000000000,473.0000000000,162.0000000000,3.0000000000
1717675322152,24.0000000000,53.0000000000,242.0000000000,470.0000000000,161.0000000000,3.0000000000
1717675322152,24.0000000000,52.0000000000,240.0000000000,466.0000000000,159.0000000000,3.0000000000
1717675322153,24.0000000000,52.0000000000,240.0000000000,462.0000000000,159.0000000000,3.0000000000
1717675322153,24.0000000000,51.0000000000,238.0000000000,457.0000000000,159.0000000000,3.0000000000
1717675322153,24.0000000000,51.0000000000,237.0000000000,455.0000000000,157.0000000000,3.0000000000
1717675322153,24.0000000000,51.0000000000,236.0000000000,451.0000000000,156.0000000000,3.0000000000
1717675322153,24.0000000000,51.0000000000,235.0000000000,459.0000000000,156.0000000000,3.0000000000
1717675322153,23.0000000000,51.0000000000,233.0000000000,459.0000000000,155.0000000000,3.0000000000
1717675322153,23.0000000000,51.0000000000,231.0000000000,455.0000000000,153.0000000000,2.0000000000
1717675322169,23.0000000000,51.0000000000,231.0000000000,451.0000000000,153.0000000000,3.0000000000
1717675322171,23.0000000000,50.0000000000,230.0000000000,447.0000000000,152.0000000000,3.0000000000
1717675322171,23.0000000000,49.0000000000,228.0000000000,444.0000000000,152.0000000000,2.0000000000
1717675322172,23.0000000000,49.0000000000,227.0000000000,440.0000000000,151.0000000000,2.0000000000
1717675322172,22.0000000000,49.0000000000,226.0000000000,437.0000000000,150.0000000000,2.0000000000
1717675322172,22.0000000000,48.0000000000,224.0000000000,433.0000000000,149.0000000000,2.0000000000
1717675322172,22.0000000000,48.0000000000,224.0000000000,430.0000000000,148.0000000000,2.0000000000
1717675322173,22.0000000000,48.0000000000,222.0000000000,427.0000000000,147.0000000000,2.0000000000
1717675322173,22.0000000000,48.0000000000,222.0000000000,423.0000000000,147.0000000000,2.0000000000
1717675322173,22.0000000000,48.0000000000,220.0000000000,420.0000000000,146.0000000000,2.0000000000
1717675322174,21.0000000000,48.0000000000,219.0000000000,416.0000000000,145.0000000000,2.0000000000
1717675322192,21.0000000000,47.0000000000,218.0000000000,413.0000000000,144.0000000000,2.0000000000
1717675322194,21.0000000000,47.0000000000,216.0000000000,411.0000000000,143.0000000000,2.0000000000
1717675322195,21.0000000000,47.0000000000,216.0000000000,408.0000000000,143.0000000000,2.0000000000
1717675322196,20.0000000000,46.0000000000,215.0000000000,404.0000000000,142.0000000000,2.0000000000
1717675322196,20.0000000000,46.0000000000,214.0000000000,401.0000000000,142.0000000000,2.0000000000
1717675322196,20.0000000000,46.0000000000,334.0000000000,399.0000000000,141.0000000000,2.0000000000
1717675322196,20.0000000000,89.0000000000,335.0000000000,396.0000000000,140.0000000000,2.0000000000
1717675322197,19.0000000000,88.0000000000,334.0000000000,392.0000000000,139.0000000000,2.0000000000
1717675322197,20.0000000000,87.0000000000,350.0000000000,391.0000000000,139.0000000000,2.0000000000
1717675322197,19.0000000000,87.0000000000,347.0000000000,387.0000000000,137.0000000000,1.0000000000
1717675322197,20.0000000000,86.0000000000,344.0000000000,385.0000000000,137.0000000000,2.0000000000
1717675322198,19.0000000000,85.0000000000,342.0000000000,382.0000000000,135.0000000000,3.0000000000
1717675322198,19.0000000000,84.0000000000,339.0000000000,379.0000000000,135.0000000000,3.0000000000
1717675322198,19.0000000000,84.0000000000,336.0000000000,376.0000000000,135.0000000000,3.0000000000
1717675322218,19.0000000000,83.0000000000,335.0000000000,374.0000000000,135.0000000000,3.0000000000
1717675322219,19.0000000000,83.0000000000,332.0000000000,371.0000000000,134.0000000000,3.0000000000
1717675322219,19.0000000000,83.0000000000,329.0000000000,368.0000000000,133.0000000000,3.0000000000
1717675322219,19.0000000000,82.0000000000,327.0000000000,366.0000000000,132.0000000000,3.0000000000
1717675322219,19.0000000000,81.0000000000,326.0000000000,364.0000000000,131.0000000000,3.0000000000
1717675322219,19.0000000000,80.0000000000,323.0000000000,361.0000000000,131.0000000000,3.0000000000
1717675322219,18.0000000000,79.0000000000,321.0000000000,359.0000000000,130.0000000000,3.0000000000
1717675322219,18.0000000000,79.0000000000,319.0000000000,356.0000000000,129.0000000000,3.0000000000
1717675322219,18.0000000000,79.0000000000,316.0000000000,354.0000000000,129.0000000000,3.0000000000
1717675322220,18.0000000000,79.0000000000,315.0000000000,352.0000000000,128.0000000000,3.0000000000
1717675322220,18.0000000000,79.0000000000,313.0000000000,350.0000000000,127.0000000000,3.0000000000
1717675322220,18.0000000000,78.0000000000,311.0000000000,348.0000000000,127.0000000000,3.0000000000
1717675322220,18.0000000000,77.0000000000,309.0000000000,344.0000000000,126.0000000000,2.0000000000
1717675322220,18.0000000000,77.0000000000,307.0000000000,343.0000000000,126.0000000000,2.0000000000
1717675322236,18.0000000000,76.0000000000,305.0000000000,340.0000000000,126.0000000000,3.0000000000
1717675322237,17.0000000000,76.0000000000,304.0000000000,339.0000000000,125.0000000000,3.0000000000
1717675322237,17.0000000000,75.0000000000,344.0000000000,336.0000000000,124.0000000000,3.0000000000
1717675322237,18.0000000000,75.0000000000,340.0000000000,334.0000000000,124.0000000000,3.0000000000
1717675322237,17.0000000000,75.0000000000,337.0000000000,332.0000000000,123.0000000000,2.0000000000
1717675322238,17.0000000000,73.0000000000,335.0000000000,329.0000000000,123.0000000000,3.0000000000
1717675322238,17.0000000000,73.0000000000,333.0000000000,327.0000000000,121.0000000000,3.0000000000
1717675322238,17.0000000000,73.0000000000,385.0000000000,326.0000000000,121.0000000000,3.0000000000
1717675322238,19.0000000000,73.0000000000,382.0000000000,323.0000000000,120.0000000000,2.0000000000
1717675322258,19.0000000000,71.0000000000,379.0000000000,322.0000000000,120.0000000000,2.0000000000
1717675322259,19.0000000000,71.0000000000,376.0000000000,319.0000000000,120.0000000000,3.0000000000
1717675322259,19.0000000000,71.0000000000,374.0000000000,319.0000000000,119.0000000000,3.0000000000
1717675322259,19.0000000000,71.0000000000,371.0000000000,316.0000000000,118.0000000000,3.0000000000
1717675322259,19.0000000000,71.0000000000,368.0000000000,352.0000000000,118.0000000000,2.0000000000
1717675322260,19.0000000000,71.0000000000,366.0000000000,348.0000000000,117.0000000000,2.0000000000
1717675322260,18.0000000000,70.0000000000,363.0000000000,345.0000000000,116.0000000000,2.0000000000
1717675322260,19.0000000000,70.0000000000,360.0000000000,344.0000000000,115.0000000000,2.0000000000
1717675322260,19.0000000000,68.0000000000,359.0000000000,339.0000000000,115.0000000000,2.0000000000
1717675322261,18.0000000000,68.0000000000,355.0000000000,337.0000000000,115.0000000000,4.0000000000
1717675322261,39.0000000000,68.0000000000,353.0000000000,335.0000000000,114.0000000000,4.0000000000
1717675322262,39.0000000000,68.0000000000,351.0000000000,423.0000000000,113.0000000000,4.0000000000
1717675322262,39.0000000000,67.0000000000,348.0000000000,420.0000000000,113.0000000000,4.0000000000
1717675322263,39.0000000000,67.0000000000,347.0000000000,416.0000000000,112.0000000000,4.0000000000
1717675322283,39.0000000000,67.0000000000,344.0000000000,414.0000000000,112.0000000000,4.0000000000
1717675322284,39.0000000000,66.0000000000,342.0000000000,409.0000000000,111.0000000000,4.0000000000
1717675322284,38.0000000000,65.0000000000,339.0000000000,406.0000000000,163.0000000000,3.0000000000
1717675322285,38.0000000000,65.0000000000,337.0000000000,403.0000000000,161.0000000000,4.0000000000
1717675322285,37.0000000000,64.0000000000,335.0000000000,399.0000000000,160.0000000000,4.0000000000
1717675322285,37.0000000000,64.0000000000,333.0000000000,397.0000000000,159.0000000000,3.0000000000
1717675322286,37.0000000000,63.0000000000,331.0000000000,393.0000000000,158.0000000000,4.0000000000
1717675322286,36.0000000000,63.0000000000,328.0000000000,391.0000000000,158.0000000000,4.0000000000
1717675322286,36.0000000000,63.0000000000,327.0000000000,388.0000000000,156.0000000000,4.0000000000
1717675322286,36.0000000000,63.0000000000,325.0000000000,384.0000000000,156.0000000000,4.0000000000
1717675322286,35.0000000000,63.0000000000,323.0000000000,382.0000000000,154.0000000000,4.0000000000
1717675322286,35.0000000000,63.0000000000,321.0000000000,379.0000000000,153.0000000000,4.0000000000
1717675322286,35.0000000000,62.0000000000,319.0000000000,376.0000000000,152.0000000000,3.0000000000
1717675322287,35.0000000000,62.0000000000,317.0000000000,374.0000000000,152.0000000000,3.0000000000
1717675322304,35.0000000000,62.0000000000,315.0000000000,371.0000000000,151.0000000000,4.0000000000
1717675322305,35.0000000000,61.0000000000,312.0000000000,368.0000000000,150.0000000000,3.0000000000
1717675322305,35.0000000000,61.0000000000,312.0000000000,365.0000000000,148.0000000000,3.0000000000
1717675322305,34.0000000000,60.0000000000,309.0000000000,363.0000000000,148.0000000000,4.0000000000
1717675322306,34.0000000000,60.0000000000,307.0000000000,359.0000000000,147.0000000000,3.0000000000
1717675322306,34.0000000000,60.0000000000,305.0000000000,359.0000000000,147.0000000000,3.0000000000
1717675322306,34.0000000000,59.0000000000,303.0000000000,358.0000000000,145.0000000000,3.0000000000
1717675322306,33.0000000000,59.0000000000,302.0000000000,355.0000000000,144.0000000000,3.0000000000
1717675322307,33.0000000000,59.0000000000,300.0000000000,423.0000000000,162.0000000000,3.0000000000
1717675322307,33.0000000000,58.0000000000,298.0000000000,475.0000000000,159.0000000000,3.0000000000
1717675322307,33.0000000000,57.0000000000,295.0000000000,470.0000000000,159.0000000000,3.0000000000
1717675322323,32.0000000000,57.0000000000,295.0000000000,467.0000000000,158.0000000000,3.0000000000
1717675322324,31.0000000000,57.0000000000,292.0000000000,462.0000000000,158.0000000000,3.0000000000
1717675322324,32.0000000000,56.0000000000,291.0000000000,459.0000000000,156.0000000000,3.0000000000
1717675322324,31.0000000000,56.0000000000,289.0000000000,454.0000000000,155.0000000000,3.0000000000
1717675322324,31.0000000000,56.0000000000,287.0000000000,450.0000000000,154.0000000000,11.0000000000
1717675322324,31.0000000000,56.0000000000,286.0000000000,447.0000000000,153.0000000000,11.0000000000
1717675322325,31.0000000000,56.0000000000,284.0000000000,443.0000000000,152.0000000000,11.0000000000
1717675322325,31.0000000000,55.0000000000,314.0000000000,440.0000000000,152.0000000000,11.0000000000
1717675322325,31.0000000000,56.0000000000,451.0000000000,435.0000000000,151.0000000000,10.0000000000
1717675322342,31.0000000000,55.0000000000,444.0000000000,432.0000000000,150.0000000000,10.0000000000
1717675322343,31.0000000000,55.0000000000,440.0000000000,428.0000000000,148.0000000000,10.0000000000
1717675322343,30.0000000000,54.0000000000,437.0000000000,423.0000000000,147.0000000000,9.0000000000
1717675322343,30.0000000000,54.0000000000,433.0000000000,422.0000000000,147.0000000000,10.0000000000
