timestamp,Channel 1,Channel 2,Channel 3,Channel 4,Channel 5,Channel 6
1717674982818,54.0000000000,0.0000000000,1.0000000000,56.0000000000,123.0000000000,1.0000000000
1717674982819,54.0000000000,0.0000000000,1.0000000000,56.0000000000,123.0000000000,1.0000000000
1717674982819,54.0000000000,0.0000000000,1.0000000000,56.0000000000,121.0000000000,2.0000000000
1717674982819,56.0000000000,0.0000000000,0.0000000000,56.0000000000,121.0000000000,1.0000000000
1717674982819,55.0000000000,0.0000000000,1.0000000000,56.0000000000,120.0000000000,1.0000000000
1717674982819,55.0000000000,0.0000000000,1.0000000000,55.0000000000,120.0000000000,1.0000000000
1717674982819,55.0000000000,0.0000000000,1.0000000000,56.0000000000,120.0000000000,1.0000000000
1717674982820,54.0000000000,0.0000000000,1.0000000000,55.0000000000,119.0000000000,1.0000000000
1717674982820,54.0000000000,0.0000000000,1.0000000000,55.0000000000,119.0000000000,2.0000000000
1717674982820,54.0000000000,0.0000000000,0.0000000000,55.0000000000,118.0000000000,1.0000000000
1717674982820,52.0000000000,0.0000000000,1.0000000000,54.0000000000,118.0000000000,1.0000000000
1717674982820,53.0000000000,0.0000000000,1.0000000000,54.0000000000,117.0000000000,1.0000000000
1717674982820,52.0000000000,0.0000000000,1.0000000000,54.0000000000,116.0000000000,1.0000000000
1717674982820,52.0000000000,0.0000000000,1.0000000000,53.0000000000,115.0000000000,1.0000000000
1717674982820,52.0000000000,0.0000000000,1.0000000000,54.0000000000,115.0000000000,1.0000000000
1717674982820,51.0000000000,0.0000000000,1.0000000000,53.0000000000,115.0000000000,1.0000000000
1717674982820,54.0000000000,0.0000000000,1.0000000000,52.0000000000,114.0000000000,1.0000000000
1717674982820,59.0000000000,0.0000000000,1.0000000000,53.0000000000,114.0000000000,1.0000000000
1717674982821,58.0000000000,0.0000000000,1.0000000000,52.0000000000,113.0000000000,1.0000000000
1717674982821,58.0000000000,0.0000000000,1.0000000000,51.0000000000,112.0000000000,1.0000000000
1717674982821,57.0000000000,0.0000000000,1.0000000000,51.0000000000,112.0000000000,1.0000000000
1717674982821,56.0000000000,0.0000000000,1.0000000000,51.0000000000,112.0000000000,1.0000000000
1717674982821,57.0000000000,0.0000000000,1.0000000000,51.0000000000,111.0000000000,1.0000000000
1717674982834,56.0000000000,0.0000000000,1.0000000000,51.0000000000,111.0000000000,1.0000000000
1717674982835,56.0000000000,0.0000000000,1.0000000000,51.0000000000,110.0000000000,1.0000000000
1717674982835,56.0000000000,0.0000000000,1.0000000000,88.0000000000,110.0000000000,1.0000000000
1717674982835,56.0000000000,0.0000000000,1.0000000000,86.0000000000,109.0000000000,0.0000000000
1717674982835,56.0000000000,0.0000000000,1.0000000000,84.0000000000,109.0000000000,1.0000000000
1717674982835,55.0000000000,0.0000000000,1.0000000000,84.0000000000,108.0000000000,1.0000000000
1717674982835,55.0000000000,0.0000000000,1.0000000000,83.0000000000,108.0000000000,1.0000000000
1717674982835,57.0000000000,0.0000000000,1.0000000000,83.0000000000,108.0000000000,1.0000000000
1717674982836,59.0000000000,0.0000000000,1.0000000000,83.0000000000,107.0000000000,1.0000000000
1717674982836,59.0000000000,0.0000000000,1.0000000000,83.0000000000,106.0000000000,1.0000000000
1717674982836,57.0000000000,0.0000000000,1.0000000000,83.0000000000,106.0000000000,1.0000000000
1717674982849,57.0000000000,0.0000000000,1.0000000000,81.0000000000,105.0000000000,1.0000000000
1717674982849,57.0000000000,0.0000000000,1.0000000000,81.0000000000,105.0000000000,1.0000000000
1717674982849,57.0000000000,0.0000000000,1.0000000000,81.0000000000,103.0000000000,1.0000000000
1717674982849,56.0000000000,0.0000000000,1.0000000000,80.0000000000,103.0000000000,1.0000000000
1717674982849,56.0000000000,0.0000000000,1.0000000000,79.0000000000,103.0000000000,1.0000000000
1717674982849,56.0000000000,0.0000000000,1.0000000000,79.0000000000,103.0000000000,1.0000000000
1717674982850,56.0000000000,0.0000000000,1.0000000000,79.0000000000,103.0000000000,1.0000000000
1717674982850,56.0000000000,0.0000000000,1.0000000000,79.0000000000,103.0000000000,1.0000000000
1717674982850,56.0000000000,0.0000000000,1.0000000000,79.0000000000,102.0000000000,1.0000000000
1717674982875,56.0000000000,0.0000000000,1.0000000000,79.0000000000,101.0000000000,1.0000000000
1717674982875,56.0000000000,0.0000000000,1.0000000000,78.0000000000,101.0000000000,1.0000000000
1717674982876,56.0000000000,0.0000000000,1.0000000000,78.0000000000,100.0000000000,1.0000000000
1717674982876,56.0000000000,0.0000000000,1.0000000000,76.0000000000,100.0000000000,1.0000000000
1717674982876,55.0000000000,0.0000000000,1.0000000000,76.0000000000,100.0000000000,1.0000000000
1717674982876,56.0000000000,0.0000000000,1.0000000000,76.0000000000,99.0000000000,1.0000000000
1717674982876,55.0000000000,0.0000000000,1.0000000000,76.0000000000,99.0000000000,1.0000000000
1717674982876,54.0000000000,0.0000000000,1.0000000000,76.0000000000,98.0000000000,1.0000000000
1717674982876,54.0000000000,0.0000000000,1.0000000000,75.0000000000,98.0000000000,1.0000000000
1717674982877,54.0000000000,0.0000000000,1.0000000000,75.0000000000,98.0000000000,1.0000000000
1717674982877,53.0000000000,0.0000000000,1.0000000000,75.0000000000,97.0000000000,1.0000000000
1717674982877,53.0000000000,0.0000000000,1.0000000000,74.0000000000,97.0000000000,1.0000000000
1717674982877,53.0000000000,0.0000000000,1.0000000000,73.0000000000,97.0000000000,1.0000000000
1717674982877,52.0000000000,0.0000000000,1.0000000000,73.0000000000,96.0000000000,1.0000000000
1717674982877,52.0000000000,0.0000000000,1.0000000000,73.0000000000,96.0000000000,1.0000000000
1717674982877,54.0000000000,0.0000000000,1.0000000000,72.0000000000,96.0000000000,1.0000000000
1717674982878,67.0000000000,0.0000000000,1.0000000000,71.0000000000,95.0000000000,1.0000000000
1717674982878,67.0000000000,0.0000000000,1.0000000000,71.0000000000,95.0000000000,1.0000000000
1717674982878,67.0000000000,0.0000000000,1.0000000000,71.0000000000,94.0000000000,1.0000000000
1717674982878,66.0000000000,0.0000000000,1.0000000000,71.0000000000,94.0000000000,1.0000000000
1717674982893,66.0000000000,0.0000000000,1.0000000000,71.0000000000,94.0000000000,1.0000000000
1717674982894,66.0000000000,0.0000000000,1.0000000000,71.0000000000,93.0000000000,1.0000000000
1717674982894,65.0000000000,0.0000000000,0.0000000000,71.0000000000,92.0000000000,1.0000000000
1717674982894,65.0000000000,0.0000000000,1.0000000000,70.0000000000,92.0000000000,1.0000000000
1717674982895,63.0000000000,0.0000000000,1.0000000000,70.0000000000,92.0000000000,1.0000000000
1717674982895,63.0000000000,0.0000000000,1.0000000000,69.0000000000,92.0000000000,1.0000000000
1717674982895,63.0000000000,0.0000000000,1.0000000000,69.0000000000,91.0000000000,1.0000000000
1717674982895,63.0000000000,0.0000000000,1.0000000000,68.0000000000,91.0000000000,1.0000000000
1717674982895,63.0000000000,0.0000000000,1.0000000000,68.0000000000,91.0000000000,1.0000000000
1717674982895,63.0000000000,0.0000000000,2.0000000000,68.0000000000,90.0000000000,1.0000000000
1717674982895,63.0000000000,0.0000000000,2.0000000000,67.0000000000,89.0000000000,1.0000000000
1717674982896,62.0000000000,0.0000000000,1.0000000000,67.0000000000,89.0000000000,1.0000000000
1717674982896,62.0000000000,0.0000000000,1.0000000000,67.0000000000,89.0000000000,1.0000000000
1717674982911,62.0000000000,0.0000000000,1.0000000000,67.0000000000,88.0000000000,1.0000000000
1717674982911,61.0000000000,0.0000000000,2.0000000000,67.0000000000,88.0000000000,1.0000000000
1717674982911,62.0000000000,0.0000000000,1.0000000000,66.0000000000,88.0000000000,1.0000000000
1717674982912,61.0000000000,0.0000000000,1.0000000000,65.0000000000,135.0000000000,1.0000000000
1717674982912,61.0000000000,0.0000000000,1.0000000000,65.0000000000,135.0000000000,1.0000000000
1717674982912,60.0000000000,0.0000000000,1.0000000000,65.0000000000,134.0000000000,1.0000000000
1717674982912,60.0000000000,0.0000000000,1.0000000000,65.0000000000,132.0000000000,1.0000000000
1717674982912,60.0000000000,0.0000000000,1.0000000000,64.0000000000,131.0000000000,1.0000000000
1717674982912,59.0000000000,0.0000000000,1.0000000000,63.0000000000,131.0000000000,1.0000000000
1717674982912,59.0000000000,0.0000000000,1.0000000000,63.0000000000,130.0000000000,1.0000000000
1717674982913,59.0000000000,0.0000000000,1.0000000000,63.0000000000,130.0000000000,0.0000000000
1717674982913,59.0000000000,0.0000000000,1.0000000000,63.0000000000,129.0000000000,1.0000000000
1717674982913,59.0000000000,0.0000000000,1.0000000000,63.0000000000,127.0000000000,1.0000000000
1717674982913,59.0000000000,0.0000000000,1.0000000000,63.0000000000,127.0000000000,1.0000000000
1717674982930,59.0000000000,0.0000000000,1.0000000000,62.0000000000,127.0000000000,1.0000000000
1717674982930,59.0000000000,0.0000000000,1.0000000000,63.0000000000,127.0000000000,1.0000000000
1717674982931,57.0000000000,0.0000000000,1.0000000000,62.0000000000,126.0000000000,1.0000000000
1717674982931,57.0000000000,0.0000000000,1.0000000000,62.0000000000,125.0000000000,1.0000000000
1717674982931,57.0000000000,0.0000000000,1.0000000000,61.0000000000,124.0000000000,0.0000000000
1717674982931,57.0000000000,0.0000000000,1.0000000000,61.0000000000,124.0000000000,1.0000000000
1717674982931,57.0000000000,0.0000000000,1.0000000000,61.0000000000,124.0000000000,1.0000000000
1717674982931,56.0000000000,0.0000000000,1.0000000000,60.0000000000,123.0000000000,0.0000000000
1717674982932,56.0000000000,0.0000000000,1.0000000000,60.0000000000,122.0000000000,1.0000000000
1717674982932,56.0000000000,0.0000000000,1.0000000000,60.0000000000,121.0000000000,1.0000000000
1717674982932,56.0000000000,0.0000000000,1.0000000000,60.0000000000,120.0000000000,1.0000000000
1717674982946,59.0000000000,0.0000000000,1.0000000000,60.0000000000,120.0000000000,1.0000000000
1717674982947,59.0000000000,0.0000000000,1.0000000000,81.0000000000,120.0000000000,1.0000000000
1717674982947,58.0000000000,0.0000000000,1.0000000000,137.0000000000,120.0000000000,1.0000000000
1717674982947,57.0000000000,0.0000000000,1.0000000000,135.0000000000,119.0000000000,1.0000000000
1717674982947,57.0000000000,0.0000000000,1.0000000000,135.0000000000,118.0000000000,1.0000000000
1717674982947,56.0000000000,0.0000000000,1.0000000000,134.0000000000,118.0000000000,0.0000000000
1717674982948,56.0000000000,0.0000000000,1.0000000000,134.0000000000,116.0000000000,1.0000000000
1717674982948,56.0000000000,0.0000000000,1.0000000000,132.0000000000,116.0000000000,0.0000000000
1717674982948,56.0000000000,0.0000000000,1.0000000000,131.0000000000,115.0000000000,0.0000000000
1717674982948,56.0000000000,0.0000000000,1.0000000000,131.0000000000,115.0000000000,0.0000000000
1717674982948,56.0000000000,0.0000000000,1.0000000000,131.0000000000,115.0000000000,1.0000000000
1717674982961,56.0000000000,0.0000000000,1.0000000000,129.0000000000,114.0000000000,1.0000000000
1717674982961,55.0000000000,0.0000000000,1.0000000000,129.0000000000,113.0000000000,1.0000000000
1717674982961,56.0000000000,0.0000000000,1.0000000000,127.0000000000,113.0000000000,1.0000000000
1717674982961,60.0000000000,0.0000000000,1.0000000000,127.0000000000,112.0000000000,1.0000000000
1717674982962,60.0000000000,0.0000000000,1.0000000000,127.0000000000,112.0000000000,1.0000000000
1717674982962,59.0000000000,0.0000000000,1.0000000000,126.0000000000,111.0000000000,1.0000000000
1717674982962,59.0000000000,0.0000000000,1.0000000000,126.0000000000,111.0000000000,1.0000000000
1717674982962,59.0000000000,0.0000000000,1.0000000000,124.0000000000,110.0000000000,1.0000000000
1717674982962,57.0000000000,0.0000000000,1.0000000000,124.0000000000,110.0000000000,1.0000000000
1717674982962,57.0000000000,0.0000000000,1.0000000000,123.0000000000,109.0000000000,0.0000000000
1717674982962,57.0000000000,0.0000000000,1.0000000000,123.0000000000,108.0000000000,1.0000000000
1717674982975,57.0000000000,0.0000000000,0.0000000000,121.0000000000,108.0000000000,1.0000000000
1717674982975,56.0000000000,0.0000000000,1.0000000000,121.0000000000,108.0000000000,1.0000000000
1717674982975,56.0000000000,0.0000000000,1.0000000000,120.0000000000,107.0000000000,1.0000000000
1717674982975,56.0000000000,0.0000000000,1.0000000000,120.0000000000,106.0000000000,1.0000000000
1717674982975,56.0000000000,0.0000000000,1.0000000000,120.0000000000,105.0000000000,1.0000000000
1717674982976,56.0000000000,0.0000000000,1.0000000000,120.0000000000,105.0000000000,0.0000000000
1717674982976,56.0000000000,0.0000000000,1.0000000000,119.0000000000,103.0000000000,1.0000000000
1717674982976,56.0000000000,0.0000000000,1.0000000000,118.0000000000,103.0000000000,1.0000000000
1717674982987,56.0000000000,0.0000000000,1.0000000000,117.0000000000,103.0000000000,1.0000000000
1717674982987,56.0000000000,0.0000000000,0.0000000000,116.0000000000,103.0000000000,0.0000000000
1717674982987,55.0000000000,0.0000000000,1.0000000000,115.0000000000,103.0000000000,0.0000000000
1717674982987,55.0000000000,0.0000000000,1.0000000000,115.0000000000,103.0000000000,1.0000000000
1717674982988,55.0000000000,0.0000000000,1.0000000000,114.0000000000,184.0000000000,1.0000000000
1717674982988,55.0000000000,0.0000000000,1.0000000000,114.0000000000,180.0000000000,0.0000000000
1717674982988,54.0000000000,0.0000000000,1.0000000000,113.0000000000,179.0000000000,0.0000000000
1717674982988,54.0000000000,0.0000000000,1.0000000000,167.0000000000,178.0000000000,0.0000000000
1717674983001,54.0000000000,0.0000000000,1.0000000000,166.0000000000,176.0000000000,1.0000000000
1717674983002,54.0000000000,0.0000000000,1.0000000000,164.0000000000,176.0000000000,0.0000000000
1717674983003,58.0000000000,0.0000000000,1.0000000000,163.0000000000,175.0000000000,1.0000000000
1717674983003,57.0000000000,0.0000000000,1.0000000000,162.0000000000,173.0000000000,1.0000000000
1717674983003,57.0000000000,0.0000000000,1.0000000000,161.0000000000,173.0000000000,1.0000000000
1717674983003,56.0000000000,0.0000000000,1.0000000000,159.0000000000,172.0000000000,0.0000000000
1717674983004,56.0000000000,0.0000000000,1.0000000000,159.0000000000,171.0000000000,0.0000000000
1717674983004,56.0000000000,0.0000000000,0.0000000000,159.0000000000,170.0000000000,1.0000000000
1717674983004,56.0000000000,0.0000000000,1.0000000000,158.0000000000,169.0000000000,0.0000000000
1717674983005,55.0000000000,0.0000000000,1.0000000000,156.0000000000,167.0000000000,0.0000000000
1717674983026,55.0000000000,0.0000000000,1.0000000000,156.0000000000,167.0000000000,0.0000000000
1717674983027,55.0000000000,0.0000000000,1.0000000000,155.0000000000,167.0000000000,1.0000000000
1717674983027,55.0000000000,0.0000000000,1.0000000000,155.0000000000,166.0000000000,0.0000000000
1717674983027,54.0000000000,0.0000000000,1.0000000000,153.0000000000,165.0000000000,0.0000000000
1717674983027,54.0000000000,0.0000000000,1.0000000000,152.0000000000,163.0000000000,1.0000000000
1717674983027,55.0000000000,0.0000000000,1.0000000000,152.0000000000,163.0000000000,1.0000000000
1717674983028,56.0000000000,0.0000000000,1.0000000000,152.0000000000,162.0000000000,3.0000000000
1717674983028,55.0000000000,0.0000000000,1.0000000000,150.0000000000,161.0000000000,3.0000000000
1717674983028,54.0000000000,0.0000000000,1.0000000000,149.0000000000,160.0000000000,3.0000000000
1717674983028,54.0000000000,0.0000000000,1.0000000000,148.0000000000,159.0000000000,3.0000000000
1717674983028,54.0000000000,0.0000000000,1.0000000000,147.0000000000,159.0000000000,2.0000000000
1717674983028,54.0000000000,0.0000000000,1.0000000000,147.0000000000,158.0000000000,2.0000000000
1717674983028,53.0000000000,0.0000000000,1.0000000000,146.0000000000,157.0000000000,2.0000000000
1717674983028,53.0000000000,0.0000000000,1.0000000000,145.0000000000,156.0000000000,2.0000000000
1717674983028,52.0000000000,0.0000000000,1.0000000000,144.0000000000,156.0000000000,3.0000000000
1717674983028,52.0000000000,0.0000000000,1.0000000000,143.0000000000,155.0000000000,3.0000000000
1717674983042,52.0000000000,0.0000000000,1.0000000000,143.0000000000,155.0000000000,3.0000000000
1717674983043,52.0000000000,0.0000000000,1.0000000000,142.0000000000,153.0000000000,3.0000000000
1717674983043,54.0000000000,0.0000000000,1.0000000000,142.0000000000,152.0000000000,3.0000000000
1717674983043,54.0000000000,0.0000000000,1.0000000000,141.0000000000,152.0000000000,2.0000000000
1717674983043,53.0000000000,0.0000000000,1.0000000000,140.0000000000,152.0000000000,2.0000000000
1717674983044,52.0000000000,0.0000000000,1.0000000000,140.0000000000,150.0000000000,2.0000000000
1717674983044,52.0000000000,0.0000000000,1.0000000000,139.0000000000,150.0000000000,3.0000000000
1717674983044,52.0000000000,0.0000000000,1.0000000000,137.0000000000,148.0000000000,3.0000000000
1717674983044,51.0000000000,0.0000000000,0.0000000000,137.0000000000,148.0000000000,3.0000000000
1717674983044,52.0000000000,0.0000000000,1.0000000000,135.0000000000,147.0000000000,3.0000000000
1717674983044,51.0000000000,0.0000000000,1.0000000000,135.0000000000,147.0000000000,2.0000000000
1717674983058,51.0000000000,0.0000000000,1.0000000000,135.0000000000,146.0000000000,2.0000000000
1717674983059,51.0000000000,0.0000000000,1.0000000000,135.0000000000,145.0000000000,3.0000000000
1717674983059,51.0000000000,0.0000000000,1.0000000000,134.0000000000,145.0000000000,2.0000000000
1717674983059,52.0000000000,0.0000000000,1.0000000000,133.0000000000,143.0000000000,2.0000000000
1717674983059,65.0000000000,0.0000000000,1.0000000000,132.0000000000,143.0000000000,2.0000000000
1717674983059,64.0000000000,0.0000000000,1.0000000000,131.0000000000,142.0000000000,3.0000000000
1717674983059,63.0000000000,0.0000000000,1.0000000000,131.0000000000,142.0000000000,2.0000000000
1717674983059,63.0000000000,0.0000000000,1.0000000000,131.0000000000,141.0000000000,3.0000000000
1717674983074,63.0000000000,0.0000000000,1.0000000000,130.0000000000,140.0000000000,2.0000000000
1717674983075,63.0000000000,0.0000000000,1.0000000000,129.0000000000,140.0000000000,2.0000000000
1717674983075,62.0000000000,0.0000000000,0.0000000000,127.0000000000,139.0000000000,2.0000000000
1717674983075,62.0000000000,0.0000000000,0.0000000000,127.0000000000,139.0000000000,2.0000000000
1717674983075,62.0000000000,0.0000000000,1.0000000000,127.0000000000,138.0000000000,2.0000000000
1717674983075,61.0000000000,0.0000000000,1.0000000000,127.0000000000,137.0000000000,2.0000000000
1717674983075,61.0000000000,0.0000000000,1.0000000000,126.0000000000,135.0000000000,2.0000000000
1717674983076,60.0000000000,0.0000000000,1.0000000000,126.0000000000,135.0000000000,3.0000000000
1717674983076,60.0000000000,0.0000000000,1.0000000000,125.0000000000,135.0000000000,3.0000000000
1717674983076,66.0000000000,0.0000000000,0.0000000000,124.0000000000,135.0000000000,2.0000000000
1717674983076,65.0000000000,0.0000000000,1.0000000000,124.0000000000,134.0000000000,3.0000000000
1717674983092,65.0000000000,0.0000000000,1.0000000000,123.0000000000,134.0000000000,3.0000000000
1717674983093,65.0000000000,0.0000000000,1.0000000000,123.0000000000,132.0000000000,3.0000000000
1717674983094,65.0000000000,0.0000000000,1.0000000000,121.0000000000,131.0000000000,2.0000000000
1717674983094,64.0000000000,0.0000000000,1.0000000000,121.0000000000,131.0000000000,2.0000000000
1717674983094,63.0000000000,0.0000000000,0.0000000000,120.0000000000,131.0000000000,2.0000000000
1717674983094,63.0000000000,0.0000000000,1.0000000000,120.0000000000,130.0000000000,2.0000000000
1717674983095,63.0000000000,0.0000000000,1.0000000000,120.0000000000,129.0000000000,3.0000000000
1717674983095,63.0000000000,0.0000000000,1.0000000000,119.0000000000,129.0000000000,2.0000000000
1717674983095,62.0000000000,0.0000000000,1.0000000000,118.0000000000,127.0000000000,2.0000000000
1717674983096,62.0000000000,0.0000000000,1.0000000000,118.0000000000,127.0000000000,2.0000000000
1717674983096,62.0000000000,0.0000000000,1.0000000000,117.0000000000,127.0000000000,2.0000000000
1717674983096,62.0000000000,0.0000000000,1.0000000000,116.0000000000,127.0000000000,2.0000000000
1717674983097,62.0000000000,0.0000000000,1.0000000000,115.0000000000,126.0000000000,2.0000000000
1717674983123,62.0000000000,0.0000000000,1.0000000000,115.0000000000,125.0000000000,1.0000000000
1717674983125,61.0000000000,0.0000000000,1.0000000000,115.0000000000,124.0000000000,2.0000000000
1717674983126,60.0000000000,0.0000000000,0.0000000000,114.0000000000,124.0000000000,2.0000000000
1717674983126,60.0000000000,0.0000000000,1.0000000000,114.0000000000,127.0000000000,2.0000000000
1717674983126,60.0000000000,0.0000000000,1.0000000000,113.0000000000,126.0000000000,2.0000000000
1717674983126,60.0000000000,0.0000000000,1.0000000000,113.0000000000,125.0000000000,2.0000000000
1717674983127,60.0000000000,0.0000000000,1.0000000000,112.0000000000,124.0000000000,2.0000000000
1717674983127,59.0000000000,0.0000000000,1.0000000000,112.0000000000,124.0000000000,2.0000000000
1717674983127,59.0000000000,0.0000000000,1.0000000000,111.0000000000,123.0000000000,2.0000000000
1717674983127,59.0000000000,0.0000000000,1.0000000000,110.0000000000,123.0000000000,1.0000000000
1717674983128,58.0000000000,0.0000000000,1.0000000000,110.0000000000,122.0000000000,2.0000000000
1717674983128,59.0000000000,0.0000000000,1.0000000000,109.0000000000,121.0000000000,2.0000000000
1717674983128,57.0000000000,0.0000000000,1.0000000000,109.0000000000,120.0000000000,2.0000000000
1717674983128,57.0000000000,0.0000000000,1.0000000000,108.0000000000,120.0000000000,2.0000000000
1717674983129,57.0000000000,0.0000000000,1.0000000000,108.0000000000,120.0000000000,1.0000000000
1717674983129,57.0000000000,0.0000000000,0.0000000000,108.0000000000,119.0000000000,2.0000000000
1717674983129,56.0000000000,0.0000000000,1.0000000000,107.0000000000,119.0000000000,1.0000000000
1717674983129,56.0000000000,0.0000000000,1.0000000000,106.0000000000,118.0000000000,2.0000000000
1717674983130,56.0000000000,0.0000000000,0.0000000000,105.0000000000,118.0000000000,2.0000000000
1717674983130,56.0000000000,0.0000000000,1.0000000000,105.0000000000,117.0000000000,2.0000000000
1717674983130,55.0000000000,0.0000000000,1.0000000000,103.0000000000,116.0000000000,2.0000000000
1717674983130,55.0000000000,0.0000000000,1.0000000000,103.0000000000,115.0000000000,2.0000000000
1717674983131,55.0000000000,0.0000000000,1.0000000000,103.0000000000,115.0000000000,2.0000000000
1717674983131,55.0000000000,0.0000000000,1.0000000000,103.0000000000,115.0000000000,2.0000000000
1717674983157,55.0000000000,0.0000000000,1.0000000000,103.0000000000,114.0000000000,2.0000000000
1717674983158,55.0000000000,0.0000000000,0.0000000000,103.0000000000,113.0000000000,2.0000000000
1717674983158,55.0000000000,0.0000000000,1.0000000000,102.0000000000,113.0000000000,2.0000000000
1717674983158,54.0000000000,0.0000000000,1.0000000000,102.0000000000,112.0000000000,2.0000000000
1717674983159,54.0000000000,0.0000000000,0.0000000000,101.0000000000,112.0000000000,2.0000000000
1717674983159,54.0000000000,0.0000000000,1.0000000000,100.0000000000,112.0000000000,1.0000000000
1717674983159,53.0000000000,0.0000000000,1.0000000000,100.0000000000,111.0000000000,1.0000000000
1717674983159,53.0000000000,0.0000000000,1.0000000000,99.0000000000,111.0000000000,2.0000000000
1717674983159,52.0000000000,0.0000000000,0.0000000000,99.0000000000,110.0000000000,1.0000000000
1717674983160,52.0000000000,0.0000000000,1.0000000000,99.0000000000,110.0000000000,1.0000000000
1717674983160,51.0000000000,0.0000000000,1.0000000000,98.0000000000,109.0000000000,2.0000000000
1717674983160,51.0000000000,0.0000000000,1.0000000000,97.0000000000,108.0000000000,2.0000000000
1717674983160,51.0000000000,0.0000000000,0.0000000000,97.0000000000,108.0000000000,1.0000000000
1717674983160,51.0000000000,0.0000000000,1.0000000000,96.0000000000,108.0000000000,1.0000000000
1717674983160,53.0000000000,0.0000000000,1.0000000000,96.0000000000,108.0000000000,2.0000000000
1717674983161,53.0000000000,0.0000000000,1.0000000000,96.0000000000,107.0000000000,2.0000000000
1717674983161,52.0000000000,0.0000000000,1.0000000000,95.0000000000,106.0000000000,2.0000000000
1717674983161,52.0000000000,0.0000000000,0.0000000000,95.0000000000,105.0000000000,2.0000000000
1717674983161,51.0000000000,0.0000000000,0.0000000000,95.0000000000,105.0000000000,1.0000000000
1717674983161,51.0000000000,0.0000000000,0.0000000000,94.0000000000,105.0000000000,1.0000000000
1717674983174,51.0000000000,0.0000000000,0.0000000000,94.0000000000,103.0000000000,2.0000000000
1717674983175,51.0000000000,0.0000000000,1.0000000000,94.0000000000,103.0000000000,1.0000000000
1717674983176,51.0000000000,0.0000000000,0.0000000000,93.0000000000,103.0000000000,1.0000000000
1717674983176,51.0000000000,0.0000000000,1.0000000000,92.0000000000,103.0000000000,2.0000000000
1717674983176,50.0000000000,0.0000000000,1.0000000000,92.0000000000,103.0000000000,2.0000000000
1717674983176,50.0000000000,0.0000000000,0.0000000000,92.0000000000,102.0000000000,1.0000000000
1717674983176,49.0000000000,0.0000000000,0.0000000000,92.0000000000,102.0000000000,2.0000000000
1717674983176,50.0000000000,0.0000000000,0.0000000000,91.0000000000,102.0000000000,2.0000000000
1717674983177,49.0000000000,0.0000000000,1.0000000000,91.0000000000,101.0000000000,1.0000000000
1717674983177,50.0000000000,0.0000000000,1.0000000000,91.0000000000,100.0000000000,6.0000000000
1717674983177,49.0000000000,0.0000000000,1.0000000000,90.0000000000,99.0000000000,6.0000000000
1717674983193,49.0000000000,0.0000000000,0.0000000000,89.0000000000,100.0000000000,6.0000000000
1717674983194,49.0000000000,0.0000000000,0.0000000000,89.0000000000,99.0000000000,6.0000000000
1717674983194,48.0000000000,0.0000000000,0.0000000000,88.0000000000,99.0000000000,6.0000000000
1717674983194,48.0000000000,0.0000000000,0.0000000000,88.0000000000,99.0000000000,6.0000000000
1717674983195,48.0000000000,0.0000000000,1.0000000000,88.0000000000,98.0000000000,6.0000000000
1717674983195,48.0000000000,0.0000000000,0.0000000000,88.0000000000,110.0000000000,6.0000000000
1717674983195,48.0000000000,0.0000000000,0.0000000000,87.0000000000,110.0000000000,6.0000000000
1717674983195,48.0000000000,0.0000000000,0.0000000000,87.0000000000,109.0000000000,6.0000000000
1717674983195,48.0000000000,0.0000000000,0.0000000000,86.0000000000,108.0000000000,6.0000000000
1717674983195,47.0000000000,0.0000000000,1.0000000000,86.0000000000,108.0000000000,6.0000000000
1717674983195,48.0000000000,0.0000000000,0.0000000000,86.0000000000,107.0000000000,6.0000000000
1717674983196,55.0000000000,0.0000000000,1.0000000000,85.0000000000,107.0000000000,6.0000000000
1717674983196,56.0000000000,0.0000000000,1.0000000000,85.0000000000,105.0000000000,6.0000000000
1717674983196,55.0000000000,0.0000000000,0.0000000000,84.0000000000,105.0000000000,6.0000000000
1717674983196,55.0000000000,0.0000000000,0.0000000000,83.0000000000,105.0000000000,5.0000000000
1717674983213,54.0000000000,0.0000000000,0.0000000000,83.0000000000,103.0000000000,6.0000000000
1717674983214,54.0000000000,0.0000000000,0.0000000000,83.0000000000,103.0000000000,6.0000000000
1717674983214,54.0000000000,0.0000000000,0.0000000000,83.0000000000,103.0000000000,6.0000000000
1717674983214,53.0000000000,0.0000000000,0.0000000000,82.0000000000,103.0000000000,6.0000000000
1717674983214,52.0000000000,0.0000000000,0.0000000000,82.0000000000,102.0000000000,6.0000000000
1717674983214,52.0000000000,0.0000000000,1.0000000000,82.0000000000,102.0000000000,5.0000000000
1717674983215,52.0000000000,0.0000000000,1.0000000000,81.0000000000,102.0000000000,5.0000000000
1717674983215,51.0000000000,0.0000000000,1.0000000000,81.0000000000,100.0000000000,5.0000000000
1717674983215,52.0000000000,0.0000000000,1.0000000000,80.0000000000,100.0000000000,5.0000000000
1717674983216,57.0000000000,0.0000000000,1.0000000000,80.0000000000,100.0000000000,5.0000000000
1717674983216,57.0000000000,0.0000000000,0.0000000000,79.0000000000,99.0000000000,5.0000000000
1717674983216,56.0000000000,0.0000000000,1.0000000000,79.0000000000,99.0000000000,5.0000000000
1717674983216,56.0000000000,0.0000000000,1.0000000000,79.0000000000,99.0000000000,5.0000000000
1717674983216,56.0000000000,0.0000000000,1.0000000000,79.0000000000,98.0000000000,4.0000000000
1717674983232,56.0000000000,0.0000000000,0.0000000000,79.0000000000,98.0000000000,5.0000000000
1717674983233,56.0000000000,0.0000000000,1.0000000000,78.0000000000,97.0000000000,4.0000000000
1717674983233,56.0000000000,0.0000000000,1.0000000000,79.0000000000,97.0000000000,4.0000000000
1717674983233,55.0000000000,0.0000000000,1.0000000000,78.0000000000,96.0000000000,5.0000000000
1717674983234,55.0000000000,0.0000000000,1.0000000000,78.0000000000,96.0000000000,4.0000000000
1717674983234,55.0000000000,0.0000000000,1.0000000000,77.0000000000,96.0000000000,4.0000000000
1717674983234,54.0000000000,0.0000000000,1.0000000000,77.0000000000,95.0000000000,4.0000000000
1717674983234,54.0000000000,0.0000000000,1.0000000000,76.0000000000,95.0000000000,4.0000000000
1717674983235,54.0000000000,0.0000000000,1.0000000000,76.0000000000,95.0000000000,4.0000000000
1717674983235,56.0000000000,0.0000000000,1.0000000000,76.0000000000,94.0000000000,4.0000000000
1717674983235,63.0000000000,0.0000000000,1.0000000000,76.0000000000,94.0000000000,4.0000000000
1717674983236,63.0000000000,0.0000000000,1.0000000000,75.0000000000,93.0000000000,4.0000000000
1717674983250,63.0000000000,0.0000000000,1.0000000000,75.0000000000,93.0000000000,4.0000000000
1717674983250,63.0000000000,0.0000000000,1.0000000000,75.0000000000,93.0000000000,4.0000000000
1717674983250,62.0000000000,0.0000000000,1.0000000000,75.0000000000,92.0000000000,4.0000000000
1717674983250,62.0000000000,0.0000000000,1.0000000000,73.0000000000,92.0000000000,4.0000000000
1717674983250,62.0000000000,0.0000000000,0.0000000000,73.0000000000,92.0000000000,4.0000000000
1717674983251,62.0000000000,0.0000000000,1.0000000000,73.0000000000,92.0000000000,4.0000000000
1717674983251,61.0000000000,0.0000000000,0.0000000000,73.0000000000,91.0000000000,4.0000000000
1717674983251,61.0000000000,0.0000000000,1.0000000000,72.0000000000,91.0000000000,3.0000000000
1717674983251,60.0000000000,0.0000000000,1.0000000000,71.0000000000,90.0000000000,4.0000000000
1717674983251,60.0000000000,0.0000000000,1.0000000000,71.0000000000,89.0000000000,4.0000000000
1717674983251,60.0000000000,0.0000000000,1.0000000000,71.0000000000,89.0000000000,5.0000000000
1717674983251,60.0000000000,0.0000000000,1.0000000000,71.0000000000,89.0000000000,6.0000000000
1717674983264,59.0000000000,0.0000000000,1.0000000000,71.0000000000,89.0000000000,7.0000000000
1717674983265,63.0000000000,0.0000000000,1.0000000000,71.0000000000,88.0000000000,7.0000000000
1717674983266,63.0000000000,0.0000000000,1.0000000000,71.0000000000,88.0000000000,7.0000000000
1717674983266,63.0000000000,0.0000000000,1.0000000000,71.0000000000,88.0000000000,7.0000000000
1717674983266,63.0000000000,0.0000000000,1.0000000000,70.0000000000,88.0000000000,7.0000000000
1717674983266,63.0000000000,0.0000000000,1.0000000000,70.0000000000,88.0000000000,7.0000000000
1717674983266,62.0000000000,0.0000000000,0.0000000000,70.0000000000,87.0000000000,7.0000000000
1717674983266,62.0000000000,0.0000000000,0.0000000000,69.0000000000,87.0000000000,7.0000000000
1717674983266,62.0000000000,0.0000000000,1.0000000000,70.0000000000,108.0000000000,7.0000000000
1717674983267,61.0000000000,0.0000000000,0.0000000000,69.0000000000,218.0000000000,7.0000000000
1717674983267,61.0000000000,0.0000000000,1.0000000000,68.0000000000,275.0000000000,9.0000000000
1717674983267,60.0000000000,0.0000000000,1.0000000000,68.0000000000,273.0000000000,9.0000000000
1717674983280,60.0000000000,0.0000000000,0.0000000000,68.0000000000,271.0000000000,9.0000000000
1717674983282,60.0000000000,0.0000000000,0.0000000000,67.0000000000,269.0000000000,9.0000000000
1717674983282,60.0000000000,0.0000000000,1.0000000000,67.0000000000,268.0000000000,9.0000000000
1717674983283,67.0000000000,0.0000000000,0.0000000000,67.0000000000,265.0000000000,9.0000000000
1717674983283,65.0000000000,0.0000000000,0.0000000000,67.0000000000,263.0000000000,9.0000000000
1717674983283,65.0000000000,0.0000000000,0.0000000000,66.0000000000,263.0000000000,9.0000000000
1717674983283,65.0000000000,0.0000000000,0.0000000000,93.0000000000,260.0000000000,9.0000000000
1717674983284,65.0000000000,0.0000000000,1.0000000000,94.0000000000,259.0000000000,8.0000000000
1717674983284,63.0000000000,0.0000000000,0.0000000000,93.0000000000,258.0000000000,9.0000000000
1717674983284,63.0000000000,0.0000000000,0.0000000000,92.0000000000,255.0000000000,10.0000000000
1717674983285,63.0000000000,0.0000000000,0.0000000000,92.0000000000,255.0000000000,11.0000000000
1717674983285,63.0000000000,0.0000000000,0.0000000000,92.0000000000,297.0000000000,11.0000000000
1717674983285,63.0000000000,0.0000000000,0.0000000000,91.0000000000,295.0000000000,11.0000000000
1717674983286,63.0000000000,0.0000000000,0.0000000000,89.0000000000,292.0000000000,11.0000000000
1717674983309,63.0000000000,0.0000000000,0.0000000000,89.0000000000,291.0000000000,11.0000000000
1717674983310,62.0000000000,0.0000000000,0.0000000000,89.0000000000,289.0000000000,11.0000000000
1717674983310,63.0000000000,0.0000000000,0.0000000000,88.0000000000,287.0000000000,11.0000000000
1717674983310,63.0000000000,0.0000000000,0.0000000000,88.0000000000,286.0000000000,11.0000000000
1717674983310,62.0000000000,0.0000000000,0.0000000000,88.0000000000,284.0000000000,9.0000000000
1717674983310,62.0000000000,0.0000000000,0.0000000000,87.0000000000,283.0000000000,10.0000000000
1717674983311,61.0000000000,0.0000000000,0.0000000000,87.0000000000,280.0000000000,10.0000000000
1717674983311,61.0000000000,0.0000000000,0.0000000000,86.0000000000,280.0000000000,10.0000000000
1717674983311,61.0000000000,0.0000000000,1.0000000000,85.0000000000,278.0000000000,11.0000000000
1717674983311,60.0000000000,0.0000000000,14.0000000000,85.0000000000,275.0000000000,10.0000000000
1717674983311,60.0000000000,0.0000000000,14.0000000000,84.0000000000,274.0000000000,9.0000000000
1717674983311,60.0000000000,0.0000000000,14.0000000000,84.0000000000,272.0000000000,12.0000000000
1717674983311,60.0000000000,0.0000000000,13.0000000000,84.0000000000,271.0000000000,36.0000000000
1717674983311,59.0000000000,0.0000000000,14.0000000000,83.0000000000,270.0000000000,35.0000000000
1717674983311,59.0000000000,0.0000000000,13.0000000000,83.0000000000,268.0000000000,35.0000000000
1717674983331,67.0000000000,0.0000000000,13.0000000000,82.0000000000,267.0000000000,35.0000000000
1717674983332,67.0000000000,0.0000000000,13.0000000000,82.0000000000,264.0000000000,35.0000000000
1717674983332,67.0000000000,0.0000000000,12.0000000000,81.0000000000,263.0000000000,34.0000000000
1717674983332,67.0000000000,0.0000000000,13.0000000000,81.0000000000,262.0000000000,33.0000000000
1717674983332,67.0000000000,0.0000000000,12.0000000000,80.0000000000,261.0000000000,34.0000000000
1717674983332,66.0000000000,0.0000000000,12.0000000000,79.0000000000,379.0000000000,34.0000000000
1717674983332,66.0000000000,0.0000000000,12.0000000000,112.0000000000,376.0000000000,34.0000000000
1717674983332,65.0000000000,0.0000000000,13.0000000000,202.0000000000,373.0000000000,33.0000000000
1717674983332,64.0000000000,0.0000000000,12.0000000000,214.0000000000,370.0000000000,33.0000000000
1717674983332,64.0000000000,0.0000000000,12.0000000000,212.0000000000,367.0000000000,33.0000000000
1717674983332,63.0000000000,0.0000000000,12.0000000000,210.0000000000,364.0000000000,33.0000000000
1717674983333,63.0000000000,0.0000000000,12.0000000000,209.0000000000,361.0000000000,32.0000000000
1717674983333,67.0000000000,0.0000000000,12.0000000000,207.0000000000,359.0000000000,32.0000000000
1717674983346,69.0000000000,0.0000000000,12.0000000000,206.0000000000,357.0000000000,31.0000000000
1717674983348,68.0000000000,0.0000000000,12.0000000000,205.0000000000,355.0000000000,50.0000000000
1717674983349,68.0000000000,0.0000000000,12.0000000000,204.0000000000,352.0000000000,107.0000000000
1717674983349,67.0000000000,0.0000000000,12.0000000000,202.0000000000,350.0000000000,105.0000000000
1717674983349,67.0000000000,0.0000000000,12.0000000000,200.0000000000,348.0000000000,103.0000000000
1717674983350,67.0000000000,0.0000000000,12.0000000000,199.0000000000,345.0000000000,158.0000000000
1717674983350,66.0000000000,0.0000000000,17.0000000000,198.0000000000,343.0000000000,159.0000000000
1717674983350,66.0000000000,0.0000000000,33.0000000000,196.0000000000,340.0000000000,158.0000000000
1717674983351,65.0000000000,0.0000000000,33.0000000000,195.0000000000,337.0000000000,157.0000000000
1717674983351,65.0000000000,0.0000000000,32.0000000000,194.0000000000,335.0000000000,156.0000000000
1717674983351,66.0000000000,0.0000000000,32.0000000000,193.0000000000,334.0000000000,155.0000000000
1717674983367,67.0000000000,0.0000000000,31.0000000000,192.0000000000,331.0000000000,153.0000000000
1717674983368,67.0000000000,0.0000000000,31.0000000000,191.0000000000,329.0000000000,152.0000000000
1717674983368,66.0000000000,0.0000000000,31.0000000000,190.0000000000,354.0000000000,152.0000000000
1717674983368,65.0000000000,0.0000000000,31.0000000000,188.0000000000,352.0000000000,151.0000000000
1717674983368,65.0000000000,0.0000000000,31.0000000000,188.0000000000,349.0000000000,150.0000000000
1717674983368,65.0000000000,0.0000000000,31.0000000000,185.0000000000,345.0000000000,148.0000000000
1717674983368,64.0000000000,0.0000000000,31.0000000000,184.0000000000,344.0000000000,147.0000000000
1717674983368,63.0000000000,0.0000000000,31.0000000000,184.0000000000,342.0000000000,147.0000000000
1717674983369,63.0000000000,0.0000000000,31.0000000000,183.0000000000,339.0000000000,145.0000000000
1717674983384,63.0000000000,0.0000000000,31.0000000000,182.0000000000,336.0000000000,145.0000000000
1717674983386,63.0000000000,0.0000000000,30.0000000000,180.0000000000,335.0000000000,143.0000000000
1717674983387,65.0000000000,0.0000000000,30.0000000000,179.0000000000,332.0000000000,143.0000000000
1717674983388,63.0000000000,0.0000000000,30.0000000000,179.0000000000,329.0000000000,143.0000000000
1717674983388,63.0000000000,0.0000000000,30.0000000000,177.0000000000,327.0000000000,141.0000000000
1717674983388,63.0000000000,0.0000000000,30.0000000000,176.0000000000,325.0000000000,140.0000000000
1717674983389,63.0000000000,0.0000000000,29.0000000000,175.0000000000,323.0000000000,140.0000000000
1717674983390,62.0000000000,0.0000000000,29.0000000000,174.0000000000,321.0000000000,139.0000000000
1717674983391,62.0000000000,0.0000000000,29.0000000000,173.0000000000,319.0000000000,139.0000000000
1717674983391,62.0000000000,0.0000000000,28.0000000000,172.0000000000,317.0000000000,137.0000000000
1717674983392,62.0000000000,0.0000000000,28.0000000000,172.0000000000,315.0000000000,137.0000000000
1717674983392,61.0000000000,0.0000000000,28.0000000000,170.0000000000,313.0000000000,135.0000000000
1717674983393,61.0000000000,0.0000000000,28.0000000000,169.0000000000,312.0000000000,135.0000000000
1717674983393,60.0000000000,0.0000000000,28.0000000000,167.0000000000,309.0000000000,134.0000000000
1717674983415,60.0000000000,0.0000000000,28.0000000000,167.0000000000,307.0000000000,134.0000000000
1717674983415,60.0000000000,0.0000000000,28.0000000000,166.0000000000,305.0000000000,132.0000000000
1717674983415,59.0000000000,0.0000000000,27.0000000000,165.0000000000,304.0000000000,131.0000000000
1717674983415,59.0000000000,0.0000000000,27.0000000000,164.0000000000,302.0000000000,131.0000000000
1717674983415,59.0000000000,0.0000000000,27.0000000000,163.0000000000,300.0000000000,131.0000000000
1717674983415,58.0000000000,0.0000000000,27.0000000000,162.0000000000,297.0000000000,129.0000000000
1717674983416,57.0000000000,0.0000000000,27.0000000000,191.0000000000,295.0000000000,129.0000000000
1717674983416,57.0000000000,0.0000000000,27.0000000000,207.0000000000,295.0000000000,207.0000000000
1717674983416,56.0000000000,0.0000000000,26.0000000000,205.0000000000,292.0000000000,205.0000000000
1717674983416,56.0000000000,0.0000000000,26.0000000000,204.0000000000,291.0000000000,203.0000000000
1717674983416,56.0000000000,0.0000000000,26.0000000000,202.0000000000,289.0000000000,201.0000000000
1717674983416,58.0000000000,0.0000000000,25.0000000000,201.0000000000,287.0000000000,199.0000000000
1717674983416,57.0000000000,0.0000000000,25.0000000000,199.0000000000,286.0000000000,199.0000000000
1717674983416,57.0000000000,0.0000000000,25.0000000000,198.0000000000,284.0000000000,197.0000000000
1717674983429,56.0000000000,0.0000000000,25.0000000000,197.0000000000,283.0000000000,195.0000000000
1717674983430,56.0000000000,0.0000000000,25.0000000000,195.0000000000,280.0000000000,195.0000000000
1717674983430,56.0000000000,0.0000000000,25.0000000000,194.0000000000,280.0000000000,193.0000000000
1717674983430,56.0000000000,0.0000000000,24.0000000000,193.0000000000,278.0000000000,192.0000000000
1717674983430,56.0000000000,0.0000000000,24.0000000000,192.0000000000,275.0000000000,191.0000000000
1717674983430,55.0000000000,0.0000000000,24.0000000000,191.0000000000,274.0000000000,190.0000000000
1717674983431,55.0000000000,0.0000000000,24.0000000000,190.0000000000,272.0000000000,189.0000000000
1717674983444,55.0000000000,0.0000000000,24.0000000000,188.0000000000,271.0000000000,188.0000000000
1717674983445,63.0000000000,0.0000000000,24.0000000000,187.0000000000,269.0000000000,186.0000000000
1717674983445,63.0000000000,0.0000000000,24.0000000000,186.0000000000,268.0000000000,185.0000000000
1717674983445,63.0000000000,0.0000000000,24.0000000000,184.0000000000,267.0000000000,184.0000000000
1717674983445,62.0000000000,0.0000000000,24.0000000000,184.0000000000,263.0000000000,184.0000000000
1717674983445,62.0000000000,0.0000000000,24.0000000000,183.0000000000,263.0000000000,182.0000000000
1717674983445,62.0000000000,0.0000000000,24.0000000000,182.0000000000,262.0000000000,181.0000000000
1717674983445,61.0000000000,0.0000000000,23.0000000000,180.0000000000,260.0000000000,179.0000000000
1717674983445,60.0000000000,0.0000000000,24.0000000000,182.0000000000,259.0000000000,179.0000000000
1717674983462,61.0000000000,0.0000000000,24.0000000000,180.0000000000,257.0000000000,177.0000000000
1717674983462,60.0000000000,0.0000000000,24.0000000000,179.0000000000,255.0000000000,176.0000000000
1717674983463,60.0000000000,0.0000000000,24.0000000000,178.0000000000,255.0000000000,176.0000000000
1717674983463,59.0000000000,0.0000000000,24.0000000000,177.0000000000,253.0000000000,174.0000000000
1717674983463,60.0000000000,0.0000000000,24.0000000000,176.0000000000,252.0000000000,173.0000000000
1717674983463,59.0000000000,0.0000000000,23.0000000000,175.0000000000,250.0000000000,172.0000000000
1717674983463,58.0000000000,0.0000000000,22.0000000000,174.0000000000,249.0000000000,177.0000000000
1717674983463,58.0000000000,0.0000000000,23.0000000000,173.0000000000,248.0000000000,176.0000000000
1717674983463,57.0000000000,0.0000000000,23.0000000000,172.0000000000,247.0000000000,175.0000000000
1717674983478,57.0000000000,0.0000000000,22.0000000000,170.0000000000,244.0000000000,174.0000000000
1717674983478,56.0000000000,0.0000000000,22.0000000000,169.0000000000,243.0000000000,173.0000000000
1717674983478,56.0000000000,0.0000000000,22.0000000000,167.0000000000,242.0000000000,172.0000000000
1717674983479,56.0000000000,0.0000000000,22.0000000000,167.0000000000,241.0000000000,171.0000000000
1717674983479,56.0000000000,0.0000000000,22.0000000000,167.0000000000,240.0000000000,169.0000000000
1717674983479,56.0000000000,0.0000000000,22.0000000000,166.0000000000,239.0000000000,169.0000000000
1717674983479,55.0000000000,0.0000000000,22.0000000000,165.0000000000,236.0000000000,167.0000000000
1717674983479,55.0000000000,0.0000000000,22.0000000000,163.0000000000,236.0000000000,167.0000000000
1717674983479,54.0000000000,0.0000000000,22.0000000000,163.0000000000,234.0000000000,166.0000000000
1717674983492,55.0000000000,0.0000000000,21.0000000000,162.0000000000,233.0000000000,164.0000000000
1717674983493,54.0000000000,0.0000000000,22.0000000000,161.0000000000,231.0000000000,163.0000000000
1717674983493,54.0000000000,0.0000000000,21.0000000000,159.0000000000,231.0000000000,163.0000000000
1717674983493,53.0000000000,0.0000000000,21.0000000000,159.0000000000,230.0000000000,161.0000000000
1717674983493,52.0000000000,0.0000000000,20.0000000000,158.0000000000,228.0000000000,161.0000000000
1717674983493,52.0000000000,0.0000000000,20.0000000000,157.0000000000,227.0000000000,159.0000000000
1717674983494,52.0000000000,0.0000000000,20.0000000000,156.0000000000,226.0000000000,159.0000000000
1717674983507,52.0000000000,0.0000000000,19.0000000000,156.0000000000,224.0000000000,158.0000000000
1717674983508,51.0000000000,0.0000000000,19.0000000000,155.0000000000,224.0000000000,158.0000000000
1717674983508,51.0000000000,0.0000000000,19.0000000000,153.0000000000,222.0000000000,156.0000000000
1717674983508,51.0000000000,0.0000000000,19.0000000000,152.0000000000,221.0000000000,156.0000000000
1717674983508,50.0000000000,0.0000000000,19.0000000000,152.0000000000,220.0000000000,244.0000000000
1717674983508,49.0000000000,0.0000000000,19.0000000000,151.0000000000,219.0000000000,248.0000000000
1717674983509,50.0000000000,0.0000000000,19.0000000000,150.0000000000,217.0000000000,248.0000000000
1717674983509,49.0000000000,0.0000000000,19.0000000000,150.0000000000,216.0000000000,245.0000000000
1717674983509,49.0000000000,0.0000000000,19.0000000000,148.0000000000,216.0000000000,243.0000000000
1717674983521,49.0000000000,0.0000000000,19.0000000000,147.0000000000,215.0000000000,242.0000000000
1717674983522,49.0000000000,0.0000000000,19.0000000000,147.0000000000,213.0000000000,240.0000000000
1717674983522,48.0000000000,0.0000000000,19.0000000000,146.0000000000,211.0000000000,238.0000000000
1717674983522,48.0000000000,0.0000000000,19.0000000000,145.0000000000,211.0000000000,236.0000000000
1717674983522,47.0000000000,0.0000000000,19.0000000000,143.0000000000,209.0000000000,235.0000000000
1717674983522,48.0000000000,0.0000000000,19.0000000000,143.0000000000,209.0000000000,234.0000000000
1717674983522,47.0000000000,0.0000000000,18.0000000000,143.0000000000,207.0000000000,231.0000000000
1717674983535,47.0000000000,0.0000000000,18.0000000000,142.0000000000,207.0000000000,231.0000000000
1717674983536,46.0000000000,0.0000000000,18.0000000000,142.0000000000,206.0000000000,229.0000000000
1717674983536,46.0000000000,0.0000000000,18.0000000000,140.0000000000,204.0000000000,228.0000000000
1717674983536,46.0000000000,0.0000000000,18.0000000000,140.0000000000,203.0000000000,227.0000000000
1717674983536,46.0000000000,0.0000000000,17.0000000000,139.0000000000,203.0000000000,237.0000000000
1717674983536,45.0000000000,0.0000000000,18.0000000000,138.0000000000,201.0000000000,236.0000000000
1717674983536,45.0000000000,0.0000000000,17.0000000000,137.0000000000,199.0000000000,233.0000000000
1717674983536,44.0000000000,0.0000000000,18.0000000000,136.0000000000,199.0000000000,232.0000000000
1717674983536,44.0000000000,0.0000000000,17.0000000000,135.0000000000,198.0000000000,231.0000000000
1717674983536,44.0000000000,0.0000000000,17.0000000000,135.0000000000,198.0000000000,230.0000000000
1717674983550,44.0000000000,0.0000000000,17.0000000000,135.0000000000,215.0000000000,227.0000000000
1717674983551,44.0000000000,0.0000000000,17.0000000000,134.0000000000,213.0000000000,226.0000000000
1717674983551,44.0000000000,0.0000000000,17.0000000000,133.0000000000,211.0000000000,278.0000000000
1717674983551,43.0000000000,0.0000000000,17.0000000000,131.0000000000,211.0000000000,275.0000000000
1717674983551,43.0000000000,0.0000000000,17.0000000000,131.0000000000,208.0000000000,271.0000000000
1717674983551,43.0000000000,0.0000000000,17.0000000000,131.0000000000,207.0000000000,271.0000000000
1717674983551,43.0000000000,0.0000000000,17.0000000000,129.0000000000,206.0000000000,268.0000000000
1717674983551,43.0000000000,0.0000000000,17.0000000000,129.0000000000,204.0000000000,267.0000000000
1717674983551,42.0000000000,0.0000000000,16.0000000000,127.0000000000,204.0000000000,263.0000000000
1717674983566,41.0000000000,0.0000000000,17.0000000000,182.0000000000,203.0000000000,263.0000000000
1717674983567,41.0000000000,0.0000000000,16.0000000000,210.0000000000,200.0000000000,262.0000000000
1717674983567,41.0000000000,0.0000000000,16.0000000000,207.0000000000,199.0000000000,259.0000000000
1717674983567,41.0000000000,0.0000000000,16.0000000000,206.0000000000,198.0000000000,258.0000000000
1717674983567,41.0000000000,0.0000000000,16.0000000000,204.0000000000,198.0000000000,255.0000000000
1717674983567,40.0000000000,0.0000000000,15.0000000000,204.0000000000,196.0000000000,319.0000000000
1717674983567,39.0000000000,0.0000000000,16.0000000000,201.0000000000,195.0000000000,326.0000000000
1717674983582,39.0000000000,0.0000000000,17.0000000000,231.0000000000,194.0000000000,323.0000000000
1717674983582,39.0000000000,0.0000000000,17.0000000000,230.0000000000,193.0000000000,319.0000000000
1717674983582,39.0000000000,0.0000000000,16.0000000000,227.0000000000,192.0000000000,318.0000000000
1717674983582,39.0000000000,0.0000000000,15.0000000000,226.0000000000,192.0000000000,316.0000000000
1717674983583,39.0000000000,0.0000000000,16.0000000000,224.0000000000,191.0000000000,313.0000000000
1717674983583,39.0000000000,0.0000000000,15.0000000000,223.0000000000,190.0000000000,311.0000000000
1717674983583,39.0000000000,0.0000000000,15.0000000000,221.0000000000,188.0000000000,310.0000000000
1717674983583,38.0000000000,0.0000000000,15.0000000000,220.0000000000,188.0000000000,307.0000000000
1717674983583,39.0000000000,0.0000000000,15.0000000000,218.0000000000,287.0000000000,305.0000000000
1717674983596,38.0000000000,0.0000000000,15.0000000000,217.0000000000,287.0000000000,303.0000000000
1717674983596,37.0000000000,0.0000000000,15.0000000000,216.0000000000,285.0000000000,302.0000000000
1717674983597,38.0000000000,0.0000000000,15.0000000000,214.0000000000,283.0000000000,299.0000000000
1717674983597,37.0000000000,0.0000000000,15.0000000000,212.0000000000,280.0000000000,295.0000000000
1717674983597,37.0000000000,0.0000000000,16.0000000000,211.0000000000,279.0000000000,295.0000000000
1717674983597,37.0000000000,0.0000000000,15.0000000000,210.0000000000,277.0000000000,293.0000000000
1717674983597,36.0000000000,0.0000000000,15.0000000000,208.0000000000,275.0000000000,291.0000000000
1717674983598,36.0000000000,0.0000000000,15.0000000000,207.0000000000,376.0000000000,289.0000000000
1717674983598,36.0000000000,0.0000000000,15.0000000000,206.0000000000,371.0000000000,287.0000000000
1717674983612,36.0000000000,0.0000000000,15.0000000000,204.0000000000,368.0000000000,386.0000000000
1717674983613,35.0000000000,3.0000000000,15.0000000000,203.0000000000,365.0000000000,402.0000000000
1717674983613,35.0000000000,3.0000000000,15.0000000000,203.0000000000,361.0000000000,399.0000000000
1717674983613,35.0000000000,3.0000000000,15.0000000000,200.0000000000,359.0000000000,396.0000000000
1717674983613,35.0000000000,3.0000000000,15.0000000000,199.0000000000,356.0000000000,391.0000000000
1717674983613,35.0000000000,3.0000000000,15.0000000000,199.0000000000,353.0000000000,389.0000000000
1717674983613,35.0000000000,3.0000000000,15.0000000000,197.0000000000,352.0000000000,386.0000000000
1717674983614,35.0000000000,3.0000000000,15.0000000000,196.0000000000,348.0000000000,384.0000000000
1717674983614,34.0000000000,3.0000000000,15.0000000000,195.0000000000,347.0000000000,380.0000000000
1717674983627,34.0000000000,3.0000000000,15.0000000000,193.0000000000,344.0000000000,377.0000000000
1717674983628,34.0000000000,3.0000000000,15.0000000000,193.0000000000,342.0000000000,376.0000000000
1717674983628,33.0000000000,3.0000000000,15.0000000000,192.0000000000,339.0000000000,424.0000000000
1717674983628,33.0000000000,3.0000000000,14.0000000000,191.0000000000,337.0000000000,422.0000000000
1717674983628,33.0000000000,3.0000000000,14.0000000000,189.0000000000,335.0000000000,417.0000000000
1717674983628,33.0000000000,3.0000000000,15.0000000000,188.0000000000,332.0000000000,414.0000000000
1717674983628,33.0000000000,3.0000000000,14.0000000000,187.0000000000,330.0000000000,411.0000000000
1717674983644,33.0000000000,3.0000000000,14.0000000000,185.0000000000,327.0000000000,408.0000000000
1717674983645,32.0000000000,3.0000000000,15.0000000000,185.0000000000,326.0000000000,404.0000000000
1717674983645,32.0000000000,3.0000000000,14.0000000000,184.0000000000,323.0000000000,401.0000000000
1717674983645,32.0000000000,3.0000000000,14.0000000000,183.0000000000,321.0000000000,399.0000000000
1717674983646,31.0000000000,2.0000000000,14.0000000000,182.0000000000,319.0000000000,396.0000000000
1717674983646,31.0000000000,3.0000000000,14.0000000000,180.0000000000,318.0000000000,391.0000000000
1717674983646,31.0000000000,7.0000000000,15.0000000000,179.0000000000,316.0000000000,390.0000000000
1717674983646,31.0000000000,7.0000000000,14.0000000000,179.0000000000,313.0000000000,387.0000000000
1717674983646,31.0000000000,7.0000000000,15.0000000000,177.0000000000,312.0000000000,384.0000000000
1717674983646,31.0000000000,7.0000000000,15.0000000000,176.0000000000,310.0000000000,381.0000000000
1717674983647,31.0000000000,7.0000000000,15.0000000000,176.0000000000,307.0000000000,380.0000000000
1717674983664,31.0000000000,7.0000000000,15.0000000000,175.0000000000,305.0000000000,376.0000000000
1717674983665,30.0000000000,7.0000000000,15.0000000000,173.0000000000,304.0000000000,374.0000000000
1717674983665,31.0000000000,7.0000000000,15.0000000000,207.0000000000,302.0000000000,371.0000000000
1717674983665,30.0000000000,6.0000000000,15.0000000000,206.0000000000,300.0000000000,368.0000000000
1717674983665,30.0000000000,6.0000000000,15.0000000000,204.0000000000,298.0000000000,366.0000000000
1717674983666,30.0000000000,6.0000000000,15.0000000000,204.0000000000,295.0000000000,364.0000000000
1717674983666,30.0000000000,6.0000000000,15.0000000000,201.0000000000,295.0000000000,361.0000000000
1717674983666,30.0000000000,6.0000000000,15.0000000000,199.0000000000,292.0000000000,359.0000000000
1717674983666,29.0000000000,6.0000000000,14.0000000000,199.0000000000,291.0000000000,363.0000000000
1717674983666,29.0000000000,6.0000000000,21.0000000000,198.0000000000,289.0000000000,375.0000000000
1717674983666,29.0000000000,6.0000000000,30.0000000000,197.0000000000,287.0000000000,371.0000000000
1717674983667,29.0000000000,6.0000000000,30.0000000000,195.0000000000,286.0000000000,368.0000000000
1717674983684,29.0000000000,6.0000000000,30.0000000000,194.0000000000,330.0000000000,366.0000000000
1717674983685,28.0000000000,6.0000000000,30.0000000000,193.0000000000,327.0000000000,364.0000000000
1717674983686,28.0000000000,6.0000000000,29.0000000000,192.0000000000,326.0000000000,361.0000000000
1717674983686,28.0000000000,6.0000000000,30.0000000000,191.0000000000,323.0000000000,358.0000000000
1717674983686,28.0000000000,6.0000000000,29.0000000000,189.0000000000,321.0000000000,356.0000000000
1717674983686,28.0000000000,6.0000000000,29.0000000000,188.0000000000,319.0000000000,353.0000000000
1717674983687,27.0000000000,6.0000000000,29.0000000000,187.0000000000,316.0000000000,351.0000000000
1717674983687,28.0000000000,6.0000000000,29.0000000000,186.0000000000,314.0000000000,349.0000000000
1717674983687,28.0000000000,6.0000000000,28.0000000000,184.0000000000,312.0000000000,347.0000000000
1717674983688,27.0000000000,6.0000000000,28.0000000000,184.0000000000,310.0000000000,395.0000000000
1717674983688,27.0000000000,6.0000000000,28.0000000000,183.0000000000,308.0000000000,472.0000000000
1717674983701,27.0000000000,6.0000000000,28.0000000000,181.0000000000,305.0000000000,465.0000000000
1717674983702,30.0000000000,6.0000000000,28.0000000000,180.0000000000,304.0000000000,462.0000000000
1717674983702,44.0000000000,6.0000000000,28.0000000000,179.0000000000,372.0000000000,457.0000000000
1717674983702,61.0000000000,5.0000000000,27.0000000000,178.0000000000,368.0000000000,455.0000000000
1717674983702,60.0000000000,6.0000000000,27.0000000000,177.0000000000,366.0000000000,451.0000000000
1717674983702,60.0000000000,6.0000000000,27.0000000000,177.0000000000,363.0000000000,447.0000000000
1717674983702,59.0000000000,5.0000000000,27.0000000000,216.0000000000,359.0000000000,444.0000000000
1717674983715,59.0000000000,5.0000000000,26.0000000000,216.0000000000,358.0000000000,440.0000000000
1717674983715,59.0000000000,5.0000000000,27.0000000000,213.0000000000,354.0000000000,437.0000000000
1717674983715,57.0000000000,5.0000000000,27.0000000000,212.0000000000,352.0000000000,433.0000000000
1717674983715,57.0000000000,5.0000000000,25.0000000000,211.0000000000,350.0000000000,431.0000000000
1717674983716,57.0000000000,5.0000000000,27.0000000000,209.0000000000,347.0000000000,427.0000000000
1717674983716,56.0000000000,4.0000000000,27.0000000000,207.0000000000,344.0000000000,423.0000000000
1717674983716,56.0000000000,5.0000000000,27.0000000000,207.0000000000,342.0000000000,421.0000000000
1717674983716,56.0000000000,4.0000000000,27.0000000000,205.0000000000,340.0000000000,417.0000000000
1717674983716,56.0000000000,5.0000000000,27.0000000000,204.0000000000,337.0000000000,415.0000000000
1717674983731,56.0000000000,5.0000000000,27.0000000000,203.0000000000,335.0000000000,412.0000000000
1717674983731,55.0000000000,5.0000000000,27.0000000000,201.0000000000,334.0000000000,408.0000000000
1717674983732,55.0000000000,4.0000000000,26.0000000000,199.0000000000,331.0000000000,406.0000000000
1717674983732,55.0000000000,4.0000000000,26.0000000000,199.0000000000,329.0000000000,428.0000000000
1717674983732,55.0000000000,4.0000000000,26.0000000000,198.0000000000,327.0000000000,519.0000000000
1717674983732,54.0000000000,4.0000000000,25.0000000000,195.0000000000,325.0000000000,512.0000000000
1717674983732,53.0000000000,4.0000000000,25.0000000000,195.0000000000,322.0000000000,507.0000000000
1717674983732,53.0000000000,4.0000000000,25.0000000000,193.0000000000,319.0000000000,504.0000000000
1717674983732,52.0000000000,4.0000000000,25.0000000000,192.0000000000,318.0000000000,499.0000000000
1717674983732,52.0000000000,4.0000000000,25.0000000000,191.0000000000,316.0000000000,496.0000000000
1717674983744,52.0000000000,4.0000000000,24.0000000000,190.0000000000,315.0000000000,491.0000000000
1717674983744,52.0000000000,3.0000000000,24.0000000000,189.0000000000,312.0000000000,487.0000000000
1717674983744,51.0000000000,4.0000000000,24.0000000000,188.0000000000,310.0000000000,483.0000000000
1717674983744,51.0000000000,4.0000000000,24.0000000000,187.0000000000,308.0000000000,479.0000000000
1717674983745,51.0000000000,4.0000000000,24.0000000000,185.0000000000,306.0000000000,476.0000000000
1717674983745,50.0000000000,3.0000000000,24.0000000000,184.0000000000,304.0000000000,472.0000000000
1717674983756,50.0000000000,4.0000000000,24.0000000000,184.0000000000,303.0000000000,468.0000000000
1717674983757,50.0000000000,4.0000000000,24.0000000000,182.0000000000,300.0000000000,463.0000000000
1717674983757,49.0000000000,3.0000000000,24.0000000000,181.0000000000,299.0000000000,460.0000000000
1717674983757,102.0000000000,3.0000000000,24.0000000000,179.0000000000,296.0000000000,457.0000000000
1717674983757,100.0000000000,3.0000000000,24.0000000000,179.0000000000,295.0000000000,454.0000000000
1717674983757,99.0000000000,3.0000000000,24.0000000000,177.0000000000,293.0000000000,449.0000000000
1717674983758,98.0000000000,3.0000000000,23.0000000000,177.0000000000,291.0000000000,447.0000000000
1717674983769,97.0000000000,4.0000000000,24.0000000000,176.0000000000,290.0000000000,444.0000000000
1717674983770,97.0000000000,4.0000000000,24.0000000000,175.0000000000,287.0000000000,440.0000000000
1717674983770,96.0000000000,4.0000000000,24.0000000000,174.0000000000,286.0000000000,436.0000000000
1717674983770,96.0000000000,3.0000000000,23.0000000000,172.0000000000,284.0000000000,434.0000000000
1717674983770,95.0000000000,4.0000000000,24.0000000000,172.0000000000,283.0000000000,524.0000000000
1717674983770,94.0000000000,3.0000000000,25.0000000000,171.0000000000,281.0000000000,517.0000000000
1717674983770,94.0000000000,4.0000000000,25.0000000000,169.0000000000,280.0000000000,513.0000000000
1717674983783,94.0000000000,3.0000000000,25.0000000000,168.0000000000,278.0000000000,508.0000000000
1717674983783,112.0000000000,3.0000000000,25.0000000000,167.0000000000,276.0000000000,504.0000000000
1717674983784,111.0000000000,3.0000000000,25.0000000000,167.0000000000,274.0000000000,499.0000000000
1717674983784,110.0000000000,3.0000000000,25.0000000000,167.0000000000,272.0000000000,495.0000000000
1717674983784,109.0000000000,3.0000000000,24.0000000000,166.0000000000,271.0000000000,491.0000000000
1717674983784,108.0000000000,3.0000000000,24.0000000000,164.0000000000,269.0000000000,486.0000000000
1717674983784,108.0000000000,3.0000000000,24.0000000000,164.0000000000,268.0000000000,481.0000000000
1717674983796,107.0000000000,3.0000000000,24.0000000000,163.0000000000,267.0000000000,479.0000000000
1717674983797,106.0000000000,3.0000000000,24.0000000000,162.0000000000,263.0000000000,475.0000000000
1717674983797,105.0000000000,3.0000000000,24.0000000000,161.0000000000,263.0000000000,492.0000000000
1717674983797,152.0000000000,3.0000000000,46.0000000000,159.0000000000,262.0000000000,594.0000000000
1717674983798,242.0000000000,3.0000000000,48.0000000000,159.0000000000,259.0000000000,589.0000000000
1717674983798,238.0000000000,3.0000000000,48.0000000000,158.0000000000,258.0000000000,582.0000000000
1717674983799,236.0000000000,3.0000000000,48.0000000000,158.0000000000,257.0000000000,575.0000000000
1717674983799,235.0000000000,3.0000000000,47.0000000000,156.0000000000,266.0000000000,570.0000000000
1717674983815,231.0000000000,3.0000000000,47.0000000000,156.0000000000,263.0000000000,566.0000000000
1717674983815,231.0000000000,3.0000000000,46.0000000000,155.0000000000,262.0000000000,560.0000000000
1717674983815,228.0000000000,3.0000000000,46.0000000000,153.0000000000,260.0000000000,555.0000000000
1717674983816,227.0000000000,3.0000000000,46.0000000000,152.0000000000,259.0000000000,549.0000000000
1717674983816,225.0000000000,3.0000000000,46.0000000000,152.0000000000,255.0000000000,545.0000000000
1717674983816,224.0000000000,3.0000000000,45.0000000000,151.0000000000,255.0000000000,540.0000000000
1717674983816,222.0000000000,3.0000000000,45.0000000000,150.0000000000,254.0000000000,535.0000000000
1717674983816,221.0000000000,3.0000000000,44.0000000000,149.0000000000,252.0000000000,530.0000000000
1717674983816,219.0000000000,3.0000000000,44.0000000000,149.0000000000,251.0000000000,572.0000000000
1717674983832,217.0000000000,3.0000000000,44.0000000000,147.0000000000,248.0000000000,623.0000000000
1717674983833,216.0000000000,3.0000000000,44.0000000000,147.0000000000,248.0000000000,615.0000000000
1717674983833,215.0000000000,3.0000000000,43.0000000000,146.0000000000,247.0000000000,609.0000000000
1717674983833,214.0000000000,3.0000000000,43.0000000000,145.0000000000,244.0000000000,604.0000000000
1717674983833,212.0000000000,3.0000000000,43.0000000000,145.0000000000,243.0000000000,598.0000000000
1717674983834,211.0000000000,3.0000000000,42.0000000000,143.0000000000,242.0000000000,694.0000000000
1717674983834,209.0000000000,3.0000000000,42.0000000000,143.0000000000,240.0000000000,715.0000000000
1717674983834,208.0000000000,2.0000000000,41.0000000000,142.0000000000,239.0000000000,707.0000000000
1717674983834,207.0000000000,2.0000000000,41.0000000000,142.0000000000,238.0000000000,699.0000000000
1717674983834,205.0000000000,3.0000000000,41.0000000000,140.0000000000,236.0000000000,690.0000000000
1717674983835,204.0000000000,3.0000000000,41.0000000000,140.0000000000,235.0000000000,683.0000000000
1717674983851,203.0000000000,2.0000000000,40.0000000000,139.0000000000,233.0000000000,675.0000000000
1717674983851,201.0000000000,3.0000000000,40.0000000000,139.0000000000,231.0000000000,669.0000000000
1717674983852,199.0000000000,3.0000000000,39.0000000000,137.0000000000,231.0000000000,662.0000000000
1717674983852,199.0000000000,3.0000000000,39.0000000000,137.0000000000,266.0000000000,655.0000000000
1717674983852,198.0000000000,3.0000000000,39.0000000000,135.0000000000,289.0000000000,647.0000000000
1717674983852,196.0000000000,3.0000000000,39.0000000000,135.0000000000,288.0000000000,643.0000000000
1717674983852,195.0000000000,3.0000000000,39.0000000000,135.0000000000,286.0000000000,636.0000000000
1717674983852,193.0000000000,2.0000000000,39.0000000000,134.0000000000,284.0000000000,629.0000000000
1717674983853,193.0000000000,3.0000000000,39.0000000000,132.0000000000,282.0000000000,623.0000000000
1717674983878,192.0000000000,3.0000000000,39.0000000000,131.0000000000,280.0000000000,618.0000000000
1717674983879,191.0000000000,3.0000000000,38.0000000000,131.0000000000,278.0000000000,611.0000000000
1717674983879,189.0000000000,3.0000000000,38.0000000000,130.0000000000,276.0000000000,606.0000000000
1717674983879,188.0000000000,2.0000000000,38.0000000000,130.0000000000,275.0000000000,600.0000000000
1717674983879,187.0000000000,3.0000000000,38.0000000000,129.0000000000,272.0000000000,595.0000000000
1717674983879,185.0000000000,2.0000000000,37.0000000000,127.0000000000,271.0000000000,590.0000000000
1717674983879,184.0000000000,3.0000000000,37.0000000000,127.0000000000,269.0000000000,583.0000000000
1717674983879,184.0000000000,2.0000000000,36.0000000000,127.0000000000,267.0000000000,578.0000000000
1717674983879,183.0000000000,2.0000000000,36.0000000000,126.0000000000,265.0000000000,574.0000000000
1717674983880,182.0000000000,2.0000000000,36.0000000000,125.0000000000,263.0000000000,568.0000000000
1717674983880,179.0000000000,2.0000000000,35.0000000000,125.0000000000,262.0000000000,563.0000000000
1717674983880,179.0000000000,2.0000000000,36.0000000000,124.0000000000,264.0000000000,559.0000000000
1717674983880,178.0000000000,2.0000000000,35.0000000000,123.0000000000,351.0000000000,555.0000000000
1717674983880,177.0000000000,2.0000000000,35.0000000000,123.0000000000,348.0000000000,550.0000000000
1717674983880,176.0000000000,12.0000000000,35.0000000000,121.0000000000,344.0000000000,545.0000000000
1717674983897,175.0000000000,12.0000000000,35.0000000000,121.0000000000,342.0000000000,540.0000000000
1717674983900,174.0000000000,12.0000000000,35.0000000000,120.0000000000,339.0000000000,536.0000000000
1717674983900,172.0000000000,12.0000000000,35.0000000000,120.0000000000,336.0000000000,530.0000000000
1717674983901,172.0000000000,12.0000000000,35.0000000000,120.0000000000,334.0000000000,526.0000000000
1717674983901,171.0000000000,12.0000000000,34.0000000000,118.0000000000,332.0000000000,521.0000000000
1717674983902,169.0000000000,12.0000000000,34.0000000000,118.0000000000,329.0000000000,516.0000000000
1717674983902,167.0000000000,12.0000000000,34.0000000000,118.0000000000,352.0000000000,512.0000000000
1717674983903,167.0000000000,11.0000000000,34.0000000000,116.0000000000,390.0000000000,508.0000000000
1717674983903,167.0000000000,12.0000000000,33.0000000000,115.0000000000,385.0000000000,504.0000000000
1717674983904,165.0000000000,11.0000000000,33.0000000000,115.0000000000,383.0000000000,500.0000000000
1717674983904,164.0000000000,12.0000000000,33.0000000000,115.0000000000,379.0000000000,496.0000000000
1717674983904,163.0000000000,12.0000000000,32.0000000000,114.0000000000,376.0000000000,492.0000000000
1717674983904,162.0000000000,11.0000000000,31.0000000000,113.0000000000,372.0000000000,487.0000000000
1717674983922,161.0000000000,11.0000000000,31.0000000000,112.0000000000,369.0000000000,484.0000000000
1717674983924,160.0000000000,11.0000000000,31.0000000000,112.0000000000,367.0000000000,480.0000000000
1717674983924,159.0000000000,11.0000000000,31.0000000000,111.0000000000,364.0000000000,476.0000000000
1717674983925,158.0000000000,11.0000000000,31.0000000000,111.0000000000,361.0000000000,472.0000000000
1717674983925,158.0000000000,11.0000000000,31.0000000000,110.0000000000,359.0000000000,468.0000000000
1717674983926,156.0000000000,11.0000000000,31.0000000000,109.0000000000,356.0000000000,465.0000000000
1717674983926,156.0000000000,11.0000000000,31.0000000000,108.0000000000,353.0000000000,462.0000000000
1717674983927,155.0000000000,11.0000000000,31.0000000000,108.0000000000,351.0000000000,458.0000000000
1717674983927,153.0000000000,11.0000000000,31.0000000000,108.0000000000,348.0000000000,454.0000000000
1717674983928,153.0000000000,11.0000000000,30.0000000000,107.0000000000,345.0000000000,451.0000000000
1717674983928,152.0000000000,11.0000000000,30.0000000000,107.0000000000,343.0000000000,448.0000000000
1717674983929,151.0000000000,11.0000000000,30.0000000000,105.0000000000,340.0000000000,444.0000000000
1717674983944,150.0000000000,11.0000000000,30.0000000000,104.0000000000,337.0000000000,441.0000000000
1717674983945,149.0000000000,11.0000000000,30.0000000000,103.0000000000,335.0000000000,439.0000000000
1717674983945,147.0000000000,11.0000000000,29.0000000000,103.0000000000,333.0000000000,435.0000000000
1717674983945,147.0000000000,10.0000000000,29.0000000000,103.0000000000,331.0000000000,432.0000000000
1717674983945,146.0000000000,11.0000000000,29.0000000000,103.0000000000,327.0000000000,428.0000000000
1717674983945,145.0000000000,10.0000000000,29.0000000000,102.0000000000,327.0000000000,425.0000000000
1717674983945,144.0000000000,10.0000000000,29.0000000000,102.0000000000,323.0000000000,422.0000000000
1717674983946,143.0000000000,10.0000000000,29.0000000000,101.0000000000,322.0000000000,419.0000000000
1717674983946,143.0000000000,9.0000000000,28.0000000000,165.0000000000,319.0000000000,415.0000000000
1717674983959,142.0000000000,9.0000000000,28.0000000000,163.0000000000,318.0000000000,414.0000000000
1717674983959,142.0000000000,9.0000000000,28.0000000000,162.0000000000,316.0000000000,411.0000000000
1717674983960,141.0000000000,9.0000000000,28.0000000000,161.0000000000,313.0000000000,408.0000000000
1717674983960,140.0000000000,9.0000000000,28.0000000000,159.0000000000,312.0000000000,404.0000000000
1717674983960,139.0000000000,9.0000000000,28.0000000000,159.0000000000,310.0000000000,402.0000000000
1717674983960,139.0000000000,9.0000000000,28.0000000000,158.0000000000,307.0000000000,513.0000000000
1717674983977,137.0000000000,9.0000000000,27.0000000000,156.0000000000,355.0000000000,507.0000000000
1717674983978,137.0000000000,9.0000000000,27.0000000000,156.0000000000,352.0000000000,502.0000000000
1717674983978,135.0000000000,9.0000000000,27.0000000000,155.0000000000,348.0000000000,497.0000000000
1717674983978,135.0000000000,9.0000000000,27.0000000000,153.0000000000,345.0000000000,493.0000000000
1717674983978,135.0000000000,8.0000000000,27.0000000000,152.0000000000,344.0000000000,487.0000000000
1717674983978,134.0000000000,9.0000000000,27.0000000000,152.0000000000,340.0000000000,483.0000000000
1717674983978,133.0000000000,9.0000000000,27.0000000000,151.0000000000,337.0000000000,480.0000000000
1717674983979,132.0000000000,9.0000000000,25.0000000000,150.0000000000,335.0000000000,476.0000000000
1717674983979,135.0000000000,8.0000000000,26.0000000000,179.0000000000,334.0000000000,529.0000000000
1717674983979,134.0000000000,8.0000000000,25.0000000000,177.0000000000,331.0000000000,523.0000000000
1717674983979,133.0000000000,7.0000000000,25.0000000000,176.0000000000,327.0000000000,519.0000000000
1717674983992,132.0000000000,8.0000000000,25.0000000000,175.0000000000,326.0000000000,513.0000000000
1717674983993,131.0000000000,7.0000000000,25.0000000000,174.0000000000,323.0000000000,508.0000000000
1717674983993,131.0000000000,7.0000000000,25.0000000000,172.0000000000,322.0000000000,504.0000000000
1717674983993,130.0000000000,7.0000000000,25.0000000000,172.0000000000,319.0000000000,499.0000000000
1717674983994,129.0000000000,7.0000000000,25.0000000000,171.0000000000,317.0000000000,495.0000000000
1717674983994,128.0000000000,7.0000000000,24.0000000000,169.0000000000,315.0000000000,491.0000000000
1717674983994,140.0000000000,7.0000000000,24.0000000000,167.0000000000,313.0000000000,486.0000000000
1717674983994,139.0000000000,7.0000000000,24.0000000000,167.0000000000,311.0000000000,574.0000000000
1717674983994,137.0000000000,7.0000000000,24.0000000000,166.0000000000,308.0000000000,568.0000000000
1717674984010,136.0000000000,7.0000000000,24.0000000000,164.0000000000,306.0000000000,561.0000000000
1717674984010,135.0000000000,7.0000000000,24.0000000000,163.0000000000,305.0000000000,556.0000000000
1717674984011,134.0000000000,7.0000000000,24.0000000000,163.0000000000,353.0000000000,551.0000000000
1717674984011,134.0000000000,7.0000000000,24.0000000000,161.0000000000,350.0000000000,547.0000000000
1717674984011,132.0000000000,7.0000000000,23.0000000000,160.0000000000,347.0000000000,540.0000000000
1717674984011,131.0000000000,7.0000000000,23.0000000000,159.0000000000,345.0000000000,536.0000000000
1717674984011,131.0000000000,7.0000000000,23.0000000000,158.0000000000,343.0000000000,530.0000000000
1717674984011,130.0000000000,7.0000000000,23.0000000000,157.0000000000,339.0000000000,527.0000000000
1717674984011,139.0000000000,7.0000000000,23.0000000000,156.0000000000,337.0000000000,521.0000000000
1717674984023,137.0000000000,7.0000000000,23.0000000000,155.0000000000,335.0000000000,516.0000000000
1717674984024,135.0000000000,7.0000000000,23.0000000000,155.0000000000,332.0000000000,512.0000000000
1717674984024,135.0000000000,7.0000000000,23.0000000000,153.0000000000,329.0000000000,508.0000000000
1717674984024,134.0000000000,7.0000000000,23.0000000000,152.0000000000,327.0000000000,504.0000000000
1717674984024,134.0000000000,7.0000000000,22.0000000000,152.0000000000,326.0000000000,499.0000000000
1717674984024,132.0000000000,7.0000000000,22.0000000000,150.0000000000,323.0000000000,495.0000000000
1717674984037,131.0000000000,7.0000000000,22.0000000000,150.0000000000,319.0000000000,492.0000000000
1717674984038,131.0000000000,7.0000000000,22.0000000000,148.0000000000,318.0000000000,487.0000000000
1717674984038,129.0000000000,7.0000000000,22.0000000000,147.0000000000,316.0000000000,536.0000000000
1717674984038,135.0000000000,7.0000000000,21.0000000000,147.0000000000,315.0000000000,583.0000000000
1717674984038,193.0000000000,7.0000000000,21.0000000000,145.0000000000,312.0000000000,579.0000000000
1717674984038,195.0000000000,7.0000000000,21.0000000000,145.0000000000,310.0000000000,573.0000000000
1717674984038,194.0000000000,7.0000000000,21.0000000000,143.0000000000,307.0000000000,568.0000000000
1717674984053,192.0000000000,7.0000000000,21.0000000000,164.0000000000,305.0000000000,561.0000000000
1717674984054,191.0000000000,7.0000000000,21.0000000000,163.0000000000,304.0000000000,556.0000000000
1717674984054,190.0000000000,6.0000000000,20.0000000000,162.0000000000,302.0000000000,551.0000000000
1717674984054,188.0000000000,6.0000000000,20.0000000000,161.0000000000,300.0000000000,546.0000000000
1717674984054,187.0000000000,7.0000000000,20.0000000000,159.0000000000,297.0000000000,540.0000000000
1717674984054,185.0000000000,6.0000000000,20.0000000000,159.0000000000,295.0000000000,536.0000000000
1717674984055,184.0000000000,7.0000000000,20.0000000000,158.0000000000,294.0000000000,531.0000000000
1717674984055,183.0000000000,7.0000000000,19.0000000000,157.0000000000,291.0000000000,527.0000000000
1717674984055,182.0000000000,6.0000000000,20.0000000000,156.0000000000,291.0000000000,521.0000000000
1717674984055,181.0000000000,6.0000000000,19.0000000000,155.0000000000,288.0000000000,518.0000000000
1717674984056,179.0000000000,6.0000000000,19.0000000000,153.0000000000,287.0000000000,513.0000000000
1717674984071,178.0000000000,6.0000000000,19.0000000000,152.0000000000,284.0000000000,509.0000000000
1717674984072,177.0000000000,6.0000000000,19.0000000000,152.0000000000,284.0000000000,504.0000000000
1717674984072,176.0000000000,6.0000000000,19.0000000000,151.0000000000,281.0000000000,499.0000000000
1717674984072,175.0000000000,6.0000000000,20.0000000000,150.0000000000,280.0000000000,581.0000000000
1717674984072,174.0000000000,6.0000000000,21.0000000000,148.0000000000,278.0000000000,664.0000000000
1717674984073,172.0000000000,6.0000000000,22.0000000000,147.0000000000,276.0000000000,655.0000000000
1717674984073,172.0000000000,6.0000000000,21.0000000000,147.0000000000,275.0000000000,647.0000000000
1717674984073,170.0000000000,6.0000000000,21.0000000000,146.0000000000,273.0000000000,643.0000000000
1717674984073,169.0000000000,6.0000000000,21.0000000000,145.0000000000,271.0000000000,636.0000000000
1717674984088,167.0000000000,5.0000000000,20.0000000000,143.0000000000,270.0000000000,628.0000000000
1717674984088,167.0000000000,6.0000000000,20.0000000000,143.0000000000,268.0000000000,622.0000000000
1717674984088,167.0000000000,5.0000000000,20.0000000000,143.0000000000,267.0000000000,617.0000000000
1717674984088,165.0000000000,6.0000000000,20.0000000000,142.0000000000,264.0000000000,611.0000000000
1717674984089,163.0000000000,6.0000000000,20.0000000000,140.0000000000,263.0000000000,604.0000000000
1717674984089,163.0000000000,5.0000000000,19.0000000000,140.0000000000,262.0000000000,599.0000000000
1717674984089,162.0000000000,5.0000000000,19.0000000000,139.0000000000,259.0000000000,591.0000000000
1717674984089,161.0000000000,6.0000000000,19.0000000000,138.0000000000,259.0000000000,588.0000000000
1717674984102,159.0000000000,5.0000000000,19.0000000000,137.0000000000,257.0000000000,582.0000000000
1717674984103,159.0000000000,5.0000000000,19.0000000000,135.0000000000,255.0000000000,576.0000000000
1717674984103,158.0000000000,5.0000000000,19.0000000000,150.0000000000,329.0000000000,571.0000000000
1717674984103,157.0000000000,5.0000000000,19.0000000000,149.0000000000,326.0000000000,567.0000000000
1717674984103,156.0000000000,5.0000000000,19.0000000000,147.0000000000,323.0000000000,561.0000000000
1717674984103,155.0000000000,5.0000000000,19.0000000000,147.0000000000,321.0000000000,556.0000000000
1717674984103,155.0000000000,5.0000000000,19.0000000000,145.0000000000,319.0000000000,551.0000000000
1717674984116,153.0000000000,5.0000000000,19.0000000000,145.0000000000,316.0000000000,547.0000000000
1717674984117,152.0000000000,5.0000000000,19.0000000000,143.0000000000,343.0000000000,643.0000000000
1717674984117,152.0000000000,5.0000000000,19.0000000000,143.0000000000,340.0000000000,635.0000000000
1717674984117,151.0000000000,4.0000000000,21.0000000000,142.0000000000,337.0000000000,627.0000000000
1717674984117,150.0000000000,4.0000000000,21.0000000000,141.0000000000,334.0000000000,622.0000000000
1717674984117,149.0000000000,4.0000000000,20.0000000000,140.0000000000,332.0000000000,615.0000000000
1717674984117,147.0000000000,4.0000000000,20.0000000000,188.0000000000,329.0000000000,608.0000000000
1717674984117,147.0000000000,4.0000000000,20.0000000000,185.0000000000,327.0000000000,602.0000000000
1717674984117,146.0000000000,4.0000000000,20.0000000000,184.0000000000,325.0000000000,598.0000000000
1717674984130,145.0000000000,4.0000000000,20.0000000000,183.0000000000,323.0000000000,591.0000000000
1717674984131,144.0000000000,3.0000000000,19.0000000000,182.0000000000,319.0000000000,585.0000000000
1717674984131,143.0000000000,4.0000000000,20.0000000000,180.0000000000,318.0000000000,579.0000000000
1717674984131,143.0000000000,4.0000000000,19.0000000000,179.0000000000,316.0000000000,575.0000000000
1717674984131,142.0000000000,4.0000000000,19.0000000000,178.0000000000,313.0000000000,569.0000000000
1717674984132,141.0000000000,4.0000000000,19.0000000000,176.0000000000,312.0000000000,563.0000000000
1717674984146,140.0000000000,4.0000000000,19.0000000000,175.0000000000,310.0000000000,559.0000000000
1717674984147,147.0000000000,4.0000000000,19.0000000000,174.0000000000,307.0000000000,555.0000000000
1717674984147,145.0000000000,3.0000000000,19.0000000000,173.0000000000,304.0000000000,549.0000000000
1717674984148,144.0000000000,4.0000000000,19.0000000000,172.0000000000,303.0000000000,543.0000000000
1717674984148,143.0000000000,4.0000000000,19.0000000000,171.0000000000,301.0000000000,540.0000000000
1717674984149,143.0000000000,3.0000000000,19.0000000000,169.0000000000,299.0000000000,535.0000000000
1717674984149,142.0000000000,3.0000000000,18.0000000000,169.0000000000,295.0000000000,531.0000000000
1717674984149,140.0000000000,3.0000000000,18.0000000000,167.0000000000,295.0000000000,526.0000000000
1717674984149,140.0000000000,4.0000000000,17.0000000000,166.0000000000,294.0000000000,521.0000000000
1717674984150,139.0000000000,3.0000000000,18.0000000000,165.0000000000,291.0000000000,516.0000000000
1717674984150,138.0000000000,3.0000000000,18.0000000000,164.0000000000,289.0000000000,513.0000000000
1717674984167,137.0000000000,3.0000000000,18.0000000000,163.0000000000,287.0000000000,509.0000000000
1717674984168,204.0000000000,3.0000000000,18.0000000000,162.0000000000,286.0000000000,504.0000000000
1717674984169,201.0000000000,3.0000000000,17.0000000000,161.0000000000,284.0000000000,500.0000000000
1717674984169,199.0000000000,3.0000000000,18.0000000000,159.0000000000,342.0000000000,497.0000000000
1717674984169,199.0000000000,3.0000000000,17.0000000000,159.0000000000,339.0000000000,492.0000000000
1717674984169,197.0000000000,3.0000000000,17.0000000000,158.0000000000,336.0000000000,488.0000000000
1717674984170,195.0000000000,3.0000000000,17.0000000000,157.0000000000,334.0000000000,484.0000000000
1717674984170,194.0000000000,3.0000000000,17.0000000000,156.0000000000,331.0000000000,481.0000000000
1717674984170,193.0000000000,3.0000000000,16.0000000000,155.0000000000,327.0000000000,478.0000000000
1717674984170,192.0000000000,3.0000000000,17.0000000000,155.0000000000,327.0000000000,473.0000000000
1717674984171,191.0000000000,3.0000000000,16.0000000000,153.0000000000,324.0000000000,470.0000000000
1717674984189,189.0000000000,3.0000000000,17.0000000000,152.0000000000,321.0000000000,467.0000000000
1717674984189,188.0000000000,3.0000000000,16.0000000000,192.0000000000,319.0000000000,463.0000000000
1717674984190,187.0000000000,3.0000000000,16.0000000000,191.0000000000,318.0000000000,460.0000000000
1717674984190,185.0000000000,3.0000000000,16.0000000000,190.0000000000,315.0000000000,455.0000000000
1717674984190,184.0000000000,3.0000000000,15.0000000000,188.0000000000,312.0000000000,454.0000000000
1717674984191,184.0000000000,3.0000000000,16.0000000000,187.0000000000,311.0000000000,450.0000000000
1717674984191,182.0000000000,3.0000000000,15.0000000000,185.0000000000,309.0000000000,550.0000000000
1717674984191,180.0000000000,3.0000000000,20.0000000000,184.0000000000,307.0000000000,543.0000000000
1717674984191,179.0000000000,3.0000000000,21.0000000000,183.0000000000,304.0000000000,539.0000000000
1717674984191,178.0000000000,3.0000000000,20.0000000000,182.0000000000,302.0000000000,533.0000000000
1717674984191,177.0000000000,3.0000000000,20.0000000000,180.0000000000,300.0000000000,527.0000000000
1717674984204,176.0000000000,3.0000000000,20.0000000000,179.0000000000,298.0000000000,523.0000000000
1717674984205,175.0000000000,3.0000000000,20.0000000000,178.0000000000,295.0000000000,534.0000000000
1717674984205,174.0000000000,3.0000000000,19.0000000000,177.0000000000,294.0000000000,530.0000000000
1717674984205,173.0000000000,3.0000000000,19.0000000000,176.0000000000,291.0000000000,524.0000000000
1717674984205,172.0000000000,3.0000000000,19.0000000000,175.0000000000,291.0000000000,519.0000000000
1717674984205,171.0000000000,31.0000000000,71.0000000000,173.0000000000,289.0000000000,552.0000000000
1717674984222,169.0000000000,34.0000000000,83.0000000000,172.0000000000,287.0000000000,547.0000000000
1717674984223,167.0000000000,33.0000000000,83.0000000000,171.0000000000,284.0000000000,540.0000000000
1717674984223,167.0000000000,33.0000000000,81.0000000000,169.0000000000,283.0000000000,536.0000000000
1717674984223,166.0000000000,33.0000000000,81.0000000000,169.0000000000,281.0000000000,625.0000000000
1717674984223,273.0000000000,33.0000000000,80.0000000000,177.0000000000,279.0000000000,624.0000000000
1717674984224,268.0000000000,32.0000000000,79.0000000000,214.0000000000,276.0000000000,616.0000000000
1717674984224,265.0000000000,31.0000000000,79.0000000000,211.0000000000,275.0000000000,609.0000000000
1717674984224,263.0000000000,31.0000000000,79.0000000000,210.0000000000,273.0000000000,604.0000000000
1717674984224,261.0000000000,31.0000000000,78.0000000000,208.0000000000,271.0000000000,596.0000000000
1717674984225,259.0000000000,31.0000000000,78.0000000000,207.0000000000,270.0000000000,591.0000000000
1717674984225,257.0000000000,31.0000000000,77.0000000000,206.0000000000,268.0000000000,584.0000000000
1717674984242,255.0000000000,31.0000000000,76.0000000000,224.0000000000,267.0000000000,658.0000000000
1717674984243,254.0000000000,31.0000000000,76.0000000000,318.0000000000,265.0000000000,648.0000000000
1717674984243,251.0000000000,31.0000000000,76.0000000000,313.0000000000,263.0000000000,641.0000000000
1717674984243,249.0000000000,31.0000000000,75.0000000000,311.0000000000,261.0000000000,634.0000000000
1717674984244,248.0000000000,30.0000000000,75.0000000000,307.0000000000,259.0000000000,652.0000000000
1717674984244,247.0000000000,30.0000000000,73.0000000000,305.0000000000,258.0000000000,696.0000000000
1717674984244,244.0000000000,30.0000000000,73.0000000000,304.0000000000,255.0000000000,689.0000000000
1717674984244,243.0000000000,30.0000000000,73.0000000000,301.0000000000,255.0000000000,681.0000000000
1717674984245,241.0000000000,30.0000000000,71.0000000000,299.0000000000,254.0000000000,673.0000000000
1717674984245,239.0000000000,30.0000000000,71.0000000000,295.0000000000,252.0000000000,665.0000000000
1717674984266,238.0000000000,29.0000000000,71.0000000000,294.0000000000,249.0000000000,658.0000000000
1717674984266,236.0000000000,29.0000000000,71.0000000000,291.0000000000,248.0000000000,651.0000000000
1717674984267,233.0000000000,28.0000000000,71.0000000000,289.0000000000,247.0000000000,643.0000000000
1717674984267,232.0000000000,28.0000000000,70.0000000000,287.0000000000,246.0000000000,637.0000000000
1717674984267,231.0000000000,28.0000000000,70.0000000000,285.0000000000,281.0000000000,630.0000000000
1717674984267,229.0000000000,28.0000000000,70.0000000000,283.0000000000,279.0000000000,624.0000000000
1717674984267,227.0000000000,28.0000000000,69.0000000000,281.0000000000,276.0000000000,617.0000000000
1717674984267,227.0000000000,28.0000000000,68.0000000000,279.0000000000,275.0000000000,611.0000000000
1717674984267,225.0000000000,28.0000000000,67.0000000000,278.0000000000,272.0000000000,605.0000000000
1717674984267,224.0000000000,27.0000000000,67.0000000000,275.0000000000,271.0000000000,599.0000000000
1717674984267,222.0000000000,27.0000000000,67.0000000000,273.0000000000,268.0000000000,594.0000000000
1717674984279,220.0000000000,27.0000000000,67.0000000000,271.0000000000,267.0000000000,588.0000000000
1717674984280,220.0000000000,27.0000000000,66.0000000000,333.0000000000,263.0000000000,583.0000000000
1717674984280,217.0000000000,27.0000000000,66.0000000000,327.0000000000,263.0000000000,577.0000000000
1717674984280,216.0000000000,27.0000000000,65.0000000000,326.0000000000,260.0000000000,572.0000000000
1717674984280,215.0000000000,25.0000000000,65.0000000000,322.0000000000,259.0000000000,566.0000000000
1717674984280,213.0000000000,25.0000000000,64.0000000000,319.0000000000,257.0000000000,561.0000000000
1717674984293,211.0000000000,25.0000000000,63.0000000000,317.0000000000,255.0000000000,556.0000000000
1717674984294,211.0000000000,25.0000000000,63.0000000000,315.0000000000,254.0000000000,551.0000000000
1717674984294,209.0000000000,25.0000000000,63.0000000000,312.0000000000,252.0000000000,545.0000000000
1717674984294,207.0000000000,25.0000000000,63.0000000000,310.0000000000,251.0000000000,540.0000000000
1717674984294,207.0000000000,25.0000000000,63.0000000000,307.0000000000,249.0000000000,536.0000000000
1717674984294,205.0000000000,25.0000000000,62.0000000000,305.0000000000,248.0000000000,531.0000000000
1717674984295,204.0000000000,24.0000000000,62.0000000000,303.0000000000,246.0000000000,527.0000000000
1717674984295,203.0000000000,24.0000000000,62.0000000000,300.0000000000,244.0000000000,523.0000000000
1717674984295,200.0000000000,24.0000000000,61.0000000000,299.0000000000,243.0000000000,519.0000000000
1717674984310,199.0000000000,24.0000000000,60.0000000000,295.0000000000,241.0000000000,514.0000000000
1717674984310,199.0000000000,24.0000000000,60.0000000000,295.0000000000,240.0000000000,510.0000000000
1717674984311,198.0000000000,24.0000000000,60.0000000000,292.0000000000,238.0000000000,505.0000000000
1717674984311,195.0000000000,24.0000000000,59.0000000000,290.0000000000,237.0000000000,500.0000000000
1717674984311,195.0000000000,24.0000000000,60.0000000000,287.0000000000,235.0000000000,496.0000000000
1717674984311,193.0000000000,24.0000000000,59.0000000000,286.0000000000,233.0000000000,492.0000000000
1717674984311,192.0000000000,24.0000000000,58.0000000000,284.0000000000,232.0000000000,488.0000000000
1717674984311,192.0000000000,23.0000000000,57.0000000000,282.0000000000,231.0000000000,486.0000000000
1717674984328,190.0000000000,23.0000000000,57.0000000000,280.0000000000,230.0000000000,481.0000000000
1717674984329,189.0000000000,23.0000000000,57.0000000000,278.0000000000,228.0000000000,478.0000000000
1717674984329,188.0000000000,22.0000000000,56.0000000000,275.0000000000,227.0000000000,473.0000000000
1717674984329,187.0000000000,22.0000000000,56.0000000000,274.0000000000,226.0000000000,470.0000000000
1717674984330,185.0000000000,22.0000000000,56.0000000000,271.0000000000,224.0000000000,467.0000000000
1717674984330,184.0000000000,22.0000000000,56.0000000000,271.0000000000,223.0000000000,463.0000000000
1717674984330,184.0000000000,22.0000000000,56.0000000000,269.0000000000,222.0000000000,460.0000000000
1717674984330,183.0000000000,22.0000000000,56.0000000000,267.0000000000,220.0000000000,455.0000000000
1717674984331,181.0000000000,21.0000000000,55.0000000000,265.0000000000,219.0000000000,452.0000000000
1717674984331,179.0000000000,21.0000000000,55.0000000000,263.0000000000,218.0000000000,449.0000000000
1717674984345,220.0000000000,21.0000000000,55.0000000000,262.0000000000,216.0000000000,542.0000000000
1717674984347,240.0000000000,20.0000000000,54.0000000000,259.0000000000,216.0000000000,536.0000000000
1717674984347,237.0000000000,20.0000000000,54.0000000000,258.0000000000,214.0000000000,530.0000000000
1717674984347,235.0000000000,20.0000000000,53.0000000000,255.0000000000,213.0000000000,525.0000000000
1717674984348,233.0000000000,20.0000000000,52.0000000000,255.0000000000,212.0000000000,519.0000000000
1717674984348,231.0000000000,20.0000000000,52.0000000000,253.0000000000,211.0000000000,515.0000000000
1717674984348,230.0000000000,20.0000000000,52.0000000000,252.0000000000,209.0000000000,510.0000000000
1717674984349,228.0000000000,20.0000000000,52.0000000000,249.0000000000,209.0000000000,505.0000000000
1717674984349,227.0000000000,19.0000000000,51.0000000000,248.0000000000,207.0000000000,500.0000000000
1717674984367,224.0000000000,19.0000000000,51.0000000000,247.0000000000,206.0000000000,497.0000000000
1717674984367,224.0000000000,19.0000000000,51.0000000000,245.0000000000,205.0000000000,664.0000000000
1717674984367,308.0000000000,19.0000000000,51.0000000000,243.0000000000,211.0000000000,686.0000000000
1717674984368,304.0000000000,19.0000000000,50.0000000000,242.0000000000,210.0000000000,676.0000000000
1717674984368,302.0000000000,19.0000000000,50.0000000000,240.0000000000,208.0000000000,668.0000000000
1717674984368,299.0000000000,19.0000000000,50.0000000000,239.0000000000,207.0000000000,662.0000000000
1717674984368,295.0000000000,19.0000000000,49.0000000000,237.0000000000,206.0000000000,654.0000000000
1717674984368,295.0000000000,19.0000000000,49.0000000000,236.0000000000,206.0000000000,647.0000000000
1717674984368,292.0000000000,19.0000000000,49.0000000000,235.0000000000,204.0000000000,639.0000000000
1717674984368,289.0000000000,18.0000000000,48.0000000000,231.0000000000,204.0000000000,632.0000000000
1717674984384,287.0000000000,18.0000000000,48.0000000000,231.0000000000,202.0000000000,625.0000000000
1717674984385,286.0000000000,18.0000000000,48.0000000000,230.0000000000,200.0000000000,649.0000000000
1717674984385,284.0000000000,18.0000000000,48.0000000000,228.0000000000,199.0000000000,642.0000000000
1717674984386,281.0000000000,18.0000000000,48.0000000000,227.0000000000,199.0000000000,635.0000000000
1717674984386,280.0000000000,18.0000000000,47.0000000000,225.0000000000,198.0000000000,630.0000000000
1717674984386,277.0000000000,17.0000000000,47.0000000000,224.0000000000,196.0000000000,623.0000000000
1717674984386,275.0000000000,17.0000000000,46.0000000000,223.0000000000,195.0000000000,616.0000000000
1717674984386,273.0000000000,17.0000000000,46.0000000000,221.0000000000,194.0000000000,610.0000000000
1717674984386,271.0000000000,17.0000000000,46.0000000000,220.0000000000,193.0000000000,604.0000000000
1717674984387,269.0000000000,17.0000000000,46.0000000000,219.0000000000,192.0000000000,598.0000000000
1717674984387,267.0000000000,17.0000000000,46.0000000000,217.0000000000,191.0000000000,591.0000000000
1717674984408,265.0000000000,16.0000000000,45.0000000000,216.0000000000,190.0000000000,585.0000000000
1717674984410,263.0000000000,17.0000000000,44.0000000000,215.0000000000,189.0000000000,580.0000000000
1717674984410,262.0000000000,17.0000000000,44.0000000000,214.0000000000,188.0000000000,575.0000000000
1717674984411,259.0000000000,16.0000000000,44.0000000000,211.0000000000,187.0000000000,569.0000000000
1717674984411,258.0000000000,16.0000000000,44.0000000000,211.0000000000,186.0000000000,563.0000000000
1717674984412,255.0000000000,16.0000000000,44.0000000000,209.0000000000,185.0000000000,559.0000000000
1717674984413,255.0000000000,18.0000000000,44.0000000000,208.0000000000,184.0000000000,553.0000000000
1717674984413,253.0000000000,18.0000000000,43.0000000000,207.0000000000,183.0000000000,550.0000000000
1717674984413,252.0000000000,18.0000000000,43.0000000000,206.0000000000,182.0000000000,544.0000000000
1717674984414,249.0000000000,18.0000000000,43.0000000000,204.0000000000,228.0000000000,540.0000000000
1717674984416,248.0000000000,18.0000000000,43.0000000000,204.0000000000,227.0000000000,535.0000000000
1717674984417,247.0000000000,18.0000000000,41.0000000000,203.0000000000,224.0000000000,530.0000000000
1717674984418,244.0000000000,17.0000000000,42.0000000000,201.0000000000,223.0000000000,525.0000000000
1717674984419,243.0000000000,17.0000000000,41.0000000000,199.0000000000,222.0000000000,520.0000000000
1717674984420,241.0000000000,18.0000000000,41.0000000000,199.0000000000,220.0000000000,516.0000000000
1717674984421,240.0000000000,17.0000000000,41.0000000000,226.0000000000,219.0000000000,512.0000000000
1717674984462,238.0000000000,17.0000000000,39.0000000000,224.0000000000,216.0000000000,508.0000000000
1717674984463,236.0000000000,17.0000000000,40.0000000000,222.0000000000,216.0000000000,503.0000000000
1717674984463,236.0000000000,17.0000000000,39.0000000000,220.0000000000,214.0000000000,499.0000000000
1717674984463,233.0000000000,17.0000000000,39.0000000000,219.0000000000,212.0000000000,495.0000000000
1717674984463,231.0000000000,17.0000000000,39.0000000000,216.0000000000,211.0000000000,490.0000000000
1717674984464,231.0000000000,17.0000000000,39.0000000000,216.0000000000,209.0000000000,487.0000000000
1717674984464,228.0000000000,17.0000000000,39.0000000000,214.0000000000,208.0000000000,502.0000000000
1717674984464,227.0000000000,16.0000000000,39.0000000000,212.0000000000,207.0000000000,636.0000000000
1717674984464,227.0000000000,16.0000000000,39.0000000000,211.0000000000,304.0000000000,628.0000000000
1717674984465,224.0000000000,16.0000000000,39.0000000000,209.0000000000,304.0000000000,620.0000000000
1717674984465,224.0000000000,15.0000000000,39.0000000000,208.0000000000,302.0000000000,714.0000000000
1717674984465,222.0000000000,16.0000000000,38.0000000000,207.0000000000,300.0000000000,704.0000000000
1717674984465,220.0000000000,15.0000000000,38.0000000000,205.0000000000,297.0000000000,696.0000000000
1717674984466,219.0000000000,16.0000000000,38.0000000000,204.0000000000,295.0000000000,688.0000000000
1717674984466,217.0000000000,15.0000000000,38.0000000000,203.0000000000,294.0000000000,679.0000000000
1717674984466,216.0000000000,15.0000000000,37.0000000000,200.0000000000,291.0000000000,671.0000000000
1717674984466,216.0000000000,15.0000000000,37.0000000000,199.0000000000,289.0000000000,664.0000000000
1717674984466,214.0000000000,15.0000000000,36.0000000000,198.0000000000,287.0000000000,657.0000000000
1717674984467,212.0000000000,15.0000000000,36.0000000000,197.0000000000,286.0000000000,650.0000000000
1717674984467,211.0000000000,15.0000000000,35.0000000000,195.0000000000,283.0000000000,643.0000000000
1717674984467,209.0000000000,15.0000000000,36.0000000000,195.0000000000,281.0000000000,638.0000000000
1717674984468,208.0000000000,15.0000000000,35.0000000000,193.0000000000,279.0000000000,632.0000000000
1717674984468,207.0000000000,15.0000000000,35.0000000000,192.0000000000,276.0000000000,624.0000000000
1717674984489,206.0000000000,15.0000000000,35.0000000000,192.0000000000,275.0000000000,618.0000000000
1717674984489,204.0000000000,15.0000000000,35.0000000000,190.0000000000,273.0000000000,611.0000000000
1717674984489,204.0000000000,15.0000000000,35.0000000000,189.0000000000,271.0000000000,606.0000000000
1717674984490,202.0000000000,15.0000000000,35.0000000000,188.0000000000,269.0000000000,600.0000000000
1717674984490,201.0000000000,15.0000000000,35.0000000000,187.0000000000,268.0000000000,593.0000000000
1717674984490,199.0000000000,15.0000000000,34.0000000000,185.0000000000,265.0000000000,588.0000000000
1717674984490,198.0000000000,15.0000000000,34.0000000000,184.0000000000,263.0000000000,583.0000000000
1717674984490,198.0000000000,15.0000000000,34.0000000000,184.0000000000,262.0000000000,577.0000000000
1717674984491,195.0000000000,15.0000000000,33.0000000000,183.0000000000,260.0000000000,572.0000000000
1717674984491,195.0000000000,15.0000000000,33.0000000000,181.0000000000,259.0000000000,566.0000000000
1717674984491,193.0000000000,15.0000000000,33.0000000000,179.0000000000,257.0000000000,560.0000000000
1717674984492,193.0000000000,14.0000000000,33.0000000000,179.0000000000,255.0000000000,556.0000000000
1717674984492,192.0000000000,14.0000000000,33.0000000000,178.0000000000,254.0000000000,551.0000000000
1717674984507,190.0000000000,14.0000000000,31.0000000000,177.0000000000,252.0000000000,547.0000000000
1717674984508,189.0000000000,14.0000000000,32.0000000000,176.0000000000,250.0000000000,542.0000000000
1717674984508,188.0000000000,14.0000000000,31.0000000000,175.0000000000,248.0000000000,537.0000000000
1717674984508,187.0000000000,14.0000000000,32.0000000000,175.0000000000,248.0000000000,532.0000000000
1717674984508,185.0000000000,14.0000000000,31.0000000000,174.0000000000,245.0000000000,527.0000000000
1717674984508,184.0000000000,13.0000000000,31.0000000000,172.0000000000,243.0000000000,523.0000000000
1717674984508,184.0000000000,14.0000000000,31.0000000000,171.0000000000,243.0000000000,519.0000000000
1717674984508,182.0000000000,13.0000000000,31.0000000000,170.0000000000,241.0000000000,513.0000000000
1717674984524,182.0000000000,13.0000000000,31.0000000000,169.0000000000,240.0000000000,510.0000000000
1717674984525,180.0000000000,13.0000000000,31.0000000000,167.0000000000,238.0000000000,504.0000000000
1717674984525,179.0000000000,13.0000000000,31.0000000000,167.0000000000,236.0000000000,500.0000000000
1717674984525,178.0000000000,13.0000000000,31.0000000000,166.0000000000,235.0000000000,496.0000000000
1717674984525,177.0000000000,12.0000000000,31.0000000000,166.0000000000,233.0000000000,493.0000000000
1717674984525,176.0000000000,13.0000000000,30.0000000000,164.0000000000,231.0000000000,489.0000000000
1717674984525,175.0000000000,12.0000000000,30.0000000000,163.0000000000,230.0000000000,486.0000000000
1717674984526,174.0000000000,12.0000000000,30.0000000000,162.0000000000,228.0000000000,481.0000000000
1717674984526,173.0000000000,12.0000000000,30.0000000000,161.0000000000,227.0000000000,478.0000000000
1717674984579,172.0000000000,12.0000000000,30.0000000000,160.0000000000,226.0000000000,473.0000000000
1717674984580,171.0000000000,12.0000000000,29.0000000000,159.0000000000,224.0000000000,470.0000000000
1717674984580,170.0000000000,12.0000000000,29.0000000000,159.0000000000,224.0000000000,466.0000000000
1717674984580,216.0000000000,12.0000000000,29.0000000000,158.0000000000,222.0000000000,462.0000000000
1717674984581,257.0000000000,12.0000000000,29.0000000000,157.0000000000,220.0000000000,459.0000000000
1717674984581,255.0000000000,12.0000000000,29.0000000000,156.0000000000,240.0000000000,455.0000000000
1717674984581,253.0000000000,12.0000000000,29.0000000000,156.0000000000,332.0000000000,451.0000000000
1717674984582,251.0000000000,12.0000000000,28.0000000000,155.0000000000,327.0000000000,448.0000000000
1717674984582,249.0000000000,12.0000000000,28.0000000000,153.0000000000,326.0000000000,444.0000000000
1717674984582,247.0000000000,11.0000000000,28.0000000000,152.0000000000,323.0000000000,447.0000000000
1717674984582,246.0000000000,11.0000000000,28.0000000000,152.0000000000,319.0000000000,471.0000000000
1717674984582,243.0000000000,12.0000000000,28.0000000000,151.0000000000,318.0000000000,465.0000000000
1717674984582,241.0000000000,11.0000000000,28.0000000000,151.0000000000,316.0000000000,461.0000000000
1717674984583,240.0000000000,11.0000000000,28.0000000000,148.0000000000,312.0000000000,457.0000000000
1717674984583,238.0000000000,11.0000000000,27.0000000000,148.0000000000,311.0000000000,453.0000000000
1717674984583,236.0000000000,11.0000000000,27.0000000000,147.0000000000,308.0000000000,449.0000000000
1717674984583,235.0000000000,11.0000000000,27.0000000000,147.0000000000,307.0000000000,495.0000000000
1717674984583,232.0000000000,11.0000000000,27.0000000000,146.0000000000,304.0000000000,489.0000000000
1717674984583,231.0000000000,11.0000000000,27.0000000000,144.0000000000,302.0000000000,484.0000000000
1717674984583,230.0000000000,10.0000000000,27.0000000000,143.0000000000,300.0000000000,480.0000000000
1717674984584,228.0000000000,10.0000000000,28.0000000000,143.0000000000,297.0000000000,476.0000000000
1717674984584,227.0000000000,11.0000000000,28.0000000000,143.0000000000,295.0000000000,472.0000000000
1717674984584,224.0000000000,10.0000000000,28.0000000000,142.0000000000,295.0000000000,467.0000000000
1717674984584,224.0000000000,11.0000000000,27.0000000000,216.0000000000,294.0000000000,463.0000000000
1717674984584,222.0000000000,11.0000000000,27.0000000000,214.0000000000,291.0000000000,460.0000000000
1717674984584,220.0000000000,10.0000000000,27.0000000000,212.0000000000,289.0000000000,455.0000000000
1717674984585,219.0000000000,9.0000000000,27.0000000000,211.0000000000,287.0000000000,451.0000000000
1717674984585,217.0000000000,10.0000000000,27.0000000000,209.0000000000,285.0000000000,448.0000000000
1717674984585,216.0000000000,9.0000000000,26.0000000000,207.0000000000,284.0000000000,444.0000000000
1717674984585,215.0000000000,9.0000000000,25.0000000000,206.0000000000,281.0000000000,440.0000000000
1717674984585,214.0000000000,11.0000000000,31.0000000000,204.0000000000,280.0000000000,438.0000000000
1717674984618,212.0000000000,10.0000000000,30.0000000000,203.0000000000,278.0000000000,435.0000000000
1717674984619,211.0000000000,10.0000000000,30.0000000000,201.0000000000,276.0000000000,431.0000000000
1717674984619,209.0000000000,9.0000000000,29.0000000000,199.0000000000,274.0000000000,476.0000000000
1717674984620,207.0000000000,11.0000000000,30.0000000000,199.0000000000,271.0000000000,476.0000000000
1717674984620,207.0000000000,10.0000000000,30.0000000000,197.0000000000,271.0000000000,471.0000000000
1717674984620,205.0000000000,10.0000000000,29.0000000000,195.0000000000,268.0000000000,466.0000000000
1717674984620,204.0000000000,10.0000000000,29.0000000000,194.0000000000,267.0000000000,462.0000000000
1717674984621,203.0000000000,9.0000000000,29.0000000000,193.0000000000,265.0000000000,458.0000000000
1717674984621,201.0000000000,9.0000000000,28.0000000000,192.0000000000,263.0000000000,455.0000000000
1717674984621,199.0000000000,9.0000000000,28.0000000000,191.0000000000,262.0000000000,451.0000000000
1717674984621,199.0000000000,9.0000000000,28.0000000000,190.0000000000,260.0000000000,447.0000000000
1717674984622,198.0000000000,9.0000000000,28.0000000000,188.0000000000,259.0000000000,443.0000000000
1717674984622,196.0000000000,9.0000000000,28.0000000000,188.0000000000,257.0000000000,440.0000000000
1717674984622,195.0000000000,9.0000000000,27.0000000000,185.0000000000,255.0000000000,435.0000000000
1717674984622,194.0000000000,9.0000000000,28.0000000000,185.0000000000,254.0000000000,432.0000000000
1717674984623,192.0000000000,9.0000000000,27.0000000000,184.0000000000,252.0000000000,429.0000000000
1717674984623,192.0000000000,9.0000000000,27.0000000000,183.0000000000,251.0000000000,426.0000000000
1717674984623,191.0000000000,8.0000000000,27.0000000000,181.0000000000,249.0000000000,423.0000000000
1717674984624,190.0000000000,9.0000000000,27.0000000000,199.0000000000,248.0000000000,419.0000000000
1717674984624,188.0000000000,9.0000000000,27.0000000000,198.0000000000,247.0000000000,416.0000000000
1717674984642,188.0000000000,9.0000000000,27.0000000000,196.0000000000,245.0000000000,414.0000000000
1717674984642,185.0000000000,9.0000000000,26.0000000000,195.0000000000,243.0000000000,412.0000000000
1717674984643,184.0000000000,8.0000000000,26.0000000000,193.0000000000,243.0000000000,408.0000000000
1717674984643,184.0000000000,9.0000000000,26.0000000000,192.0000000000,240.0000000000,405.0000000000
1717674984643,183.0000000000,8.0000000000,26.0000000000,192.0000000000,240.0000000000,403.0000000000
1717674984644,182.0000000000,8.0000000000,25.0000000000,190.0000000000,238.0000000000,399.0000000000
1717674984644,180.0000000000,8.0000000000,25.0000000000,188.0000000000,236.0000000000,397.0000000000
1717674984644,179.0000000000,7.0000000000,25.0000000000,187.0000000000,235.0000000000,394.0000000000
1717674984644,179.0000000000,7.0000000000,25.0000000000,185.0000000000,233.0000000000,391.0000000000
1717674984644,177.0000000000,9.0000000000,25.0000000000,185.0000000000,231.0000000000,390.0000000000
1717674984644,176.0000000000,9.0000000000,24.0000000000,184.0000000000,231.0000000000,387.0000000000
1717674984664,176.0000000000,8.0000000000,24.0000000000,183.0000000000,230.0000000000,384.0000000000
1717674984664,175.0000000000,8.0000000000,24.0000000000,181.0000000000,228.0000000000,381.0000000000
1717674984664,173.0000000000,7.0000000000,24.0000000000,180.0000000000,227.0000000000,380.0000000000
1717674984665,172.0000000000,8.0000000000,24.0000000000,179.0000000000,225.0000000000,376.0000000000
1717674984665,172.0000000000,9.0000000000,24.0000000000,178.0000000000,224.0000000000,374.0000000000
1717674984665,192.0000000000,9.0000000000,24.0000000000,177.0000000000,223.0000000000,371.0000000000
1717674984665,191.0000000000,8.0000000000,24.0000000000,176.0000000000,221.0000000000,370.0000000000
1717674984665,190.0000000000,7.0000000000,24.0000000000,175.0000000000,220.0000000000,367.0000000000
1717674984665,188.0000000000,7.0000000000,24.0000000000,174.0000000000,220.0000000000,365.0000000000
1717674984665,187.0000000000,8.0000000000,23.0000000000,172.0000000000,218.0000000000,363.0000000000
1717674984665,185.0000000000,7.0000000000,24.0000000000,172.0000000000,216.0000000000,359.0000000000
1717674984665,184.0000000000,7.0000000000,23.0000000000,171.0000000000,216.0000000000,358.0000000000
1717674984666,184.0000000000,7.0000000000,23.0000000000,169.0000000000,215.0000000000,355.0000000000
1717674984689,182.0000000000,7.0000000000,23.0000000000,167.0000000000,213.0000000000,353.0000000000
1717674984690,180.0000000000,7.0000000000,23.0000000000,167.0000000000,211.0000000000,352.0000000000
1717674984690,179.0000000000,7.0000000000,23.0000000000,167.0000000000,211.0000000000,487.0000000000
1717674984690,259.0000000000,7.0000000000,22.0000000000,165.0000000000,209.0000000000,481.0000000000
1717674984690,255.0000000000,7.0000000000,22.0000000000,163.0000000000,207.0000000000,476.0000000000
1717674984690,254.0000000000,7.0000000000,22.0000000000,163.0000000000,207.0000000000,472.0000000000
1717674984690,252.0000000000,7.0000000000,22.0000000000,163.0000000000,272.0000000000,468.0000000000
1717674984690,251.0000000000,7.0000000000,22.0000000000,161.0000000000,270.0000000000,463.0000000000
1717674984690,248.0000000000,7.0000000000,22.0000000000,159.0000000000,268.0000000000,460.0000000000
1717674984690,247.0000000000,7.0000000000,21.0000000000,159.0000000000,266.0000000000,455.0000000000
1717674984691,245.0000000000,7.0000000000,22.0000000000,159.0000000000,263.0000000000,452.0000000000
1717674984691,243.0000000000,7.0000000000,22.0000000000,157.0000000000,262.0000000000,448.0000000000
1717674984691,241.0000000000,7.0000000000,20.0000000000,156.0000000000,260.0000000000,444.0000000000
1717674984705,240.0000000000,7.0000000000,20.0000000000,155.0000000000,259.0000000000,440.0000000000
1717674984707,238.0000000000,7.0000000000,21.0000000000,155.0000000000,255.0000000000,438.0000000000
1717674984707,236.0000000000,7.0000000000,21.0000000000,153.0000000000,255.0000000000,434.0000000000
1717674984708,235.0000000000,7.0000000000,20.0000000000,153.0000000000,277.0000000000,430.0000000000
1717674984709,233.0000000000,7.0000000000,20.0000000000,152.0000000000,291.0000000000,427.0000000000
1717674984709,231.0000000000,7.0000000000,20.0000000000,151.0000000000,288.0000000000,423.0000000000
1717674984709,230.0000000000,7.0000000000,19.0000000000,150.0000000000,286.0000000000,420.0000000000
1717674984710,229.0000000000,7.0000000000,20.0000000000,149.0000000000,284.0000000000,417.0000000000
1717674984710,227.0000000000,7.0000000000,20.0000000000,148.0000000000,281.0000000000,414.0000000000
1717674984735,225.0000000000,7.0000000000,19.0000000000,147.0000000000,280.0000000000,412.0000000000
1717674984736,224.0000000000,7.0000000000,19.0000000000,147.0000000000,278.0000000000,408.0000000000
1717674984736,224.0000000000,7.0000000000,19.0000000000,146.0000000000,276.0000000000,404.0000000000
1717674984736,222.0000000000,7.0000000000,19.0000000000,144.0000000000,275.0000000000,401.0000000000
1717674984736,220.0000000000,6.0000000000,19.0000000000,144.0000000000,271.0000000000,399.0000000000
1717674984736,219.0000000000,6.0000000000,19.0000000000,143.0000000000,270.0000000000,396.0000000000
1717674984737,217.0000000000,6.0000000000,19.0000000000,143.0000000000,269.0000000000,392.0000000000
1717674984737,216.0000000000,7.0000000000,19.0000000000,142.0000000000,267.0000000000,390.0000000000
1717674984737,215.0000000000,7.0000000000,19.0000000000,141.0000000000,265.0000000000,387.0000000000
1717674984737,213.0000000000,6.0000000000,19.0000000000,140.0000000000,263.0000000000,384.0000000000
1717674984737,212.0000000000,6.0000000000,18.0000000000,140.0000000000,262.0000000000,382.0000000000
1717674984737,210.0000000000,6.0000000000,19.0000000000,139.0000000000,260.0000000000,379.0000000000
1717674984737,209.0000000000,6.0000000000,19.0000000000,137.0000000000,258.0000000000,376.0000000000
1717674984737,207.0000000000,6.0000000000,19.0000000000,159.0000000000,255.0000000000,374.0000000000
1717674984738,207.0000000000,6.0000000000,17.0000000000,159.0000000000,255.0000000000,371.0000000000
1717674984750,205.0000000000,6.0000000000,18.0000000000,157.0000000000,254.0000000000,368.0000000000
1717674984751,204.0000000000,6.0000000000,18.0000000000,156.0000000000,252.0000000000,408.0000000000
1717674984751,203.0000000000,25.0000000000,56.0000000000,156.0000000000,250.0000000000,415.0000000000
1717674984751,201.0000000000,25.0000000000,56.0000000000,154.0000000000,248.0000000000,412.0000000000
1717674984751,199.0000000000,24.0000000000,55.0000000000,153.0000000000,247.0000000000,408.0000000000
1717674984751,199.0000000000,24.0000000000,55.0000000000,152.0000000000,245.0000000000,405.0000000000
1717674984764,198.0000000000,24.0000000000,54.0000000000,151.0000000000,243.0000000000,401.0000000000
1717674984766,196.0000000000,24.0000000000,54.0000000000,150.0000000000,242.0000000000,398.0000000000
1717674984766,195.0000000000,24.0000000000,53.0000000000,167.0000000000,240.0000000000,395.0000000000
1717674984766,194.0000000000,24.0000000000,52.0000000000,204.0000000000,240.0000000000,441.0000000000
1717674984766,192.0000000000,23.0000000000,52.0000000000,201.0000000000,237.0000000000,436.0000000000
1717674984766,192.0000000000,23.0000000000,51.0000000000,200.0000000000,236.0000000000,432.0000000000
1717674984766,191.0000000000,23.0000000000,52.0000000000,199.0000000000,241.0000000000,429.0000000000
1717674984767,189.0000000000,23.0000000000,51.0000000000,197.0000000000,275.0000000000,424.0000000000
1717674984767,188.0000000000,22.0000000000,51.0000000000,195.0000000000,273.0000000000,421.0000000000
1717674984781,187.0000000000,22.0000000000,51.0000000000,194.0000000000,271.0000000000,417.0000000000
1717674984781,185.0000000000,22.0000000000,51.0000000000,193.0000000000,269.0000000000,414.0000000000
1717674984782,184.0000000000,22.0000000000,50.0000000000,192.0000000000,268.0000000000,411.0000000000
1717674984782,184.0000000000,22.0000000000,49.0000000000,191.0000000000,265.0000000000,408.0000000000
1717674984782,182.0000000000,22.0000000000,49.0000000000,190.0000000000,263.0000000000,403.0000000000
1717674984782,181.0000000000,21.0000000000,49.0000000000,188.0000000000,262.0000000000,400.0000000000
1717674984782,179.0000000000,20.0000000000,48.0000000000,187.0000000000,260.0000000000,398.0000000000
1717674984782,179.0000000000,22.0000000000,48.0000000000,185.0000000000,258.0000000000,394.0000000000
1717674984794,177.0000000000,21.0000000000,48.0000000000,184.0000000000,257.0000000000,467.0000000000
1717674984796,176.0000000000,21.0000000000,48.0000000000,183.0000000000,255.0000000000,551.0000000000
1717674984796,175.0000000000,20.0000000000,47.0000000000,182.0000000000,252.0000000000,545.0000000000
1717674984797,175.0000000000,20.0000000000,47.0000000000,179.0000000000,251.0000000000,540.0000000000
1717674984797,174.0000000000,20.0000000000,47.0000000000,179.0000000000,249.0000000000,535.0000000000
1717674984797,172.0000000000,20.0000000000,47.0000000000,178.0000000000,248.0000000000,529.0000000000
1717674984797,172.0000000000,20.0000000000,46.0000000000,176.0000000000,246.0000000000,524.0000000000
1717674984797,169.0000000000,19.0000000000,46.0000000000,176.0000000000,244.0000000000,519.0000000000
1717674984799,169.0000000000,20.0000000000,46.0000000000,175.0000000000,243.0000000000,515.0000000000
1717674984830,167.0000000000,20.0000000000,45.0000000000,174.0000000000,241.0000000000,511.0000000000
1717674984831,167.0000000000,19.0000000000,45.0000000000,172.0000000000,240.0000000000,524.0000000000
1717674984831,166.0000000000,19.0000000000,46.0000000000,171.0000000000,308.0000000000,518.0000000000
1717674984831,165.0000000000,19.0000000000,45.0000000000,169.0000000000,311.0000000000,512.0000000000
1717674984832,164.0000000000,19.0000000000,45.0000000000,167.0000000000,308.0000000000,507.0000000000
1717674984832,163.0000000000,19.0000000000,44.0000000000,167.0000000000,307.0000000000,502.0000000000
1717674984832,162.0000000000,19.0000000000,44.0000000000,167.0000000000,304.0000000000,498.0000000000
1717674984832,161.0000000000,19.0000000000,44.0000000000,166.0000000000,302.0000000000,494.0000000000
1717674984832,160.0000000000,19.0000000000,44.0000000000,164.0000000000,299.0000000000,488.0000000000
1717674984832,159.0000000000,18.0000000000,43.0000000000,163.0000000000,296.0000000000,485.0000000000
1717674984832,159.0000000000,18.0000000000,43.0000000000,162.0000000000,295.0000000000,480.0000000000
1717674984832,158.0000000000,18.0000000000,43.0000000000,163.0000000000,292.0000000000,476.0000000000
1717674984833,156.0000000000,18.0000000000,42.0000000000,162.0000000000,291.0000000000,473.0000000000
1717674984833,156.0000000000,18.0000000000,43.0000000000,161.0000000000,288.0000000000,470.0000000000
1717674984833,155.0000000000,17.0000000000,41.0000000000,159.0000000000,286.0000000000,465.0000000000
1717674984833,153.0000000000,18.0000000000,41.0000000000,159.0000000000,284.0000000000,472.0000000000
1717674984848,160.0000000000,17.0000000000,41.0000000000,158.0000000000,283.0000000000,681.0000000000
1717674984849,188.0000000000,17.0000000000,41.0000000000,157.0000000000,280.0000000000,692.0000000000
1717674984849,185.0000000000,17.0000000000,41.0000000000,156.0000000000,278.0000000000,684.0000000000
1717674984849,184.0000000000,17.0000000000,40.0000000000,155.0000000000,276.0000000000,675.0000000000
1717674984849,183.0000000000,17.0000000000,39.0000000000,153.0000000000,275.0000000000,668.0000000000
1717674984849,182.0000000000,17.0000000000,39.0000000000,152.0000000000,272.0000000000,660.0000000000
1717674984849,179.0000000000,17.0000000000,39.0000000000,152.0000000000,271.0000000000,653.0000000000
1717674984849,179.0000000000,17.0000000000,39.0000000000,151.0000000000,276.0000000000,647.0000000000
1717674984850,177.0000000000,17.0000000000,39.0000000000,150.0000000000,275.0000000000,639.0000000000
1717674984850,176.0000000000,16.0000000000,39.0000000000,149.0000000000,272.0000000000,632.0000000000
1717674984850,175.0000000000,16.0000000000,39.0000000000,148.0000000000,271.0000000000,627.0000000000
1717674984864,174.0000000000,16.0000000000,39.0000000000,147.0000000000,268.0000000000,621.0000000000
1717674984865,172.0000000000,16.0000000000,39.0000000000,146.0000000000,267.0000000000,615.0000000000
1717674984865,172.0000000000,15.0000000000,38.0000000000,145.0000000000,264.0000000000,608.0000000000
1717674984865,170.0000000000,15.0000000000,38.0000000000,145.0000000000,263.0000000000,602.0000000000
1717674984865,169.0000000000,15.0000000000,38.0000000000,143.0000000000,261.0000000000,596.0000000000
1717674984865,167.0000000000,15.0000000000,37.0000000000,143.0000000000,259.0000000000,590.0000000000
1717674984881,167.0000000000,15.0000000000,36.0000000000,142.0000000000,257.0000000000,584.0000000000
1717674984883,166.0000000000,15.0000000000,37.0000000000,141.0000000000,255.0000000000,579.0000000000
1717674984884,164.0000000000,15.0000000000,36.0000000000,140.0000000000,255.0000000000,573.0000000000
1717674984884,163.0000000000,15.0000000000,36.0000000000,139.0000000000,253.0000000000,568.0000000000
1717674984885,192.0000000000,15.0000000000,36.0000000000,138.0000000000,252.0000000000,621.0000000000
1717674984885,249.0000000000,15.0000000000,35.0000000000,137.0000000000,249.0000000000,614.0000000000
1717674984886,247.0000000000,15.0000000000,35.0000000000,136.0000000000,248.0000000000,608.0000000000
1717674984886,244.0000000000,14.0000000000,35.0000000000,135.0000000000,246.0000000000,602.0000000000
1717674984887,243.0000000000,14.0000000000,35.0000000000,135.0000000000,245.0000000000,624.0000000000
1717674984887,241.0000000000,21.0000000000,35.0000000000,134.0000000000,243.0000000000,615.0000000000
1717674984888,240.0000000000,20.0000000000,35.0000000000,134.0000000000,241.0000000000,609.0000000000
1717674984888,237.0000000000,20.0000000000,35.0000000000,132.0000000000,240.0000000000,603.0000000000
1717674984889,236.0000000000,20.0000000000,34.0000000000,132.0000000000,238.0000000000,596.0000000000
1717674984906,233.0000000000,19.0000000000,34.0000000000,131.0000000000,237.0000000000,590.0000000000
1717674984907,231.0000000000,19.0000000000,33.0000000000,131.0000000000,236.0000000000,583.0000000000
1717674984908,231.0000000000,19.0000000000,33.0000000000,130.0000000000,235.0000000000,578.0000000000
1717674984908,229.0000000000,19.0000000000,33.0000000000,129.0000000000,232.0000000000,572.0000000000
