timestamp,Channel 1,Channel 2,Channel 3,Channel 4,Channel 5,Channel 6
1717674993991,35.0000000000,0.0000000000,3.0000000000,143.0000000000,116.0000000000,0.0000000000
1717674993992,35.0000000000,0.0000000000,3.0000000000,142.0000000000,116.0000000000,0.0000000000
1717674993992,35.0000000000,0.0000000000,4.0000000000,141.0000000000,115.0000000000,0.0000000000
1717674993993,35.0000000000,0.0000000000,3.0000000000,140.0000000000,115.0000000000,0.0000000000
1717674993993,35.0000000000,0.0000000000,4.0000000000,140.0000000000,115.0000000000,0.0000000000
1717674993993,36.0000000000,0.0000000000,3.0000000000,139.0000000000,114.0000000000,0.0000000000
1717674993993,35.0000000000,0.0000000000,3.0000000000,138.0000000000,113.0000000000,0.0000000000
1717674993993,35.0000000000,0.0000000000,3.0000000000,137.0000000000,113.0000000000,0.0000000000
1717674993993,35.0000000000,0.0000000000,3.0000000000,137.0000000000,112.0000000000,0.0000000000
1717674993993,35.0000000000,0.0000000000,3.0000000000,136.0000000000,112.0000000000,0.0000000000
1717674993993,35.0000000000,0.0000000000,3.0000000000,135.0000000000,111.0000000000,0.0000000000
1717674993994,34.0000000000,0.0000000000,3.0000000000,135.0000000000,111.0000000000,0.0000000000
1717674993994,34.0000000000,0.0000000000,3.0000000000,135.0000000000,110.0000000000,0.0000000000
1717674993994,34.0000000000,0.0000000000,3.0000000000,134.0000000000,110.0000000000,0.0000000000
1717674993995,33.0000000000,0.0000000000,3.0000000000,134.0000000000,109.0000000000,0.0000000000
1717674993996,34.0000000000,0.0000000000,3.0000000000,132.0000000000,108.0000000000,0.0000000000
1717674994025,34.0000000000,0.0000000000,3.0000000000,131.0000000000,108.0000000000,0.0000000000
1717674994026,38.0000000000,0.0000000000,3.0000000000,131.0000000000,107.0000000000,0.0000000000
1717674994026,49.0000000000,0.0000000000,3.0000000000,131.0000000000,107.0000000000,0.0000000000
1717674994026,48.0000000000,0.0000000000,3.0000000000,130.0000000000,107.0000000000,0.0000000000
1717674994026,48.0000000000,0.0000000000,3.0000000000,129.0000000000,106.0000000000,0.0000000000
1717674994026,48.0000000000,0.0000000000,3.0000000000,129.0000000000,105.0000000000,0.0000000000
1717674994026,47.0000000000,0.0000000000,3.0000000000,128.0000000000,105.0000000000,0.0000000000
1717674994026,48.0000000000,0.0000000000,3.0000000000,127.0000000000,103.0000000000,0.0000000000
1717674994026,47.0000000000,0.0000000000,3.0000000000,127.0000000000,103.0000000000,0.0000000000
1717674994027,47.0000000000,0.0000000000,3.0000000000,127.0000000000,103.0000000000,0.0000000000
1717674994027,47.0000000000,0.0000000000,3.0000000000,126.0000000000,103.0000000000,0.0000000000
1717674994027,47.0000000000,0.0000000000,3.0000000000,125.0000000000,103.0000000000,0.0000000000
1717674994027,46.0000000000,0.0000000000,3.0000000000,124.0000000000,102.0000000000,0.0000000000
1717674994027,46.0000000000,0.0000000000,3.0000000000,124.0000000000,102.0000000000,0.0000000000
1717674994027,45.0000000000,0.0000000000,3.0000000000,124.0000000000,100.0000000000,0.0000000000
1717674994027,46.0000000000,0.0000000000,3.0000000000,123.0000000000,100.0000000000,0.0000000000
1717674994027,45.0000000000,0.0000000000,3.0000000000,122.0000000000,99.0000000000,0.0000000000
1717674994027,45.0000000000,0.0000000000,3.0000000000,122.0000000000,120.0000000000,0.0000000000
1717674994027,45.0000000000,0.0000000000,3.0000000000,121.0000000000,127.0000000000,0.0000000000
1717674994027,44.0000000000,0.0000000000,3.0000000000,120.0000000000,126.0000000000,0.0000000000
1717674994028,44.0000000000,0.0000000000,3.0000000000,120.0000000000,126.0000000000,0.0000000000
1717674994042,44.0000000000,0.0000000000,3.0000000000,120.0000000000,125.0000000000,0.0000000000
1717674994043,44.0000000000,0.0000000000,3.0000000000,119.0000000000,124.0000000000,0.0000000000
1717674994043,43.0000000000,0.0000000000,3.0000000000,119.0000000000,123.0000000000,0.0000000000
1717674994043,44.0000000000,0.0000000000,3.0000000000,118.0000000000,123.0000000000,0.0000000000
1717674994043,43.0000000000,0.0000000000,3.0000000000,118.0000000000,123.0000000000,0.0000000000
1717674994043,43.0000000000,0.0000000000,3.0000000000,117.0000000000,121.0000000000,0.0000000000
1717674994043,43.0000000000,0.0000000000,3.0000000000,116.0000000000,121.0000000000,0.0000000000
1717674994043,42.0000000000,0.0000000000,3.0000000000,116.0000000000,120.0000000000,0.0000000000
1717674994044,42.0000000000,0.0000000000,3.0000000000,115.0000000000,120.0000000000,0.0000000000
1717674994044,41.0000000000,0.0000000000,3.0000000000,115.0000000000,119.0000000000,0.0000000000
1717674994044,42.0000000000,0.0000000000,3.0000000000,114.0000000000,118.0000000000,0.0000000000
1717674994068,41.0000000000,0.0000000000,3.0000000000,114.0000000000,118.0000000000,0.0000000000
1717674994070,41.0000000000,0.0000000000,2.0000000000,113.0000000000,118.0000000000,0.0000000000
1717674994071,40.0000000000,0.0000000000,2.0000000000,113.0000000000,116.0000000000,0.0000000000
1717674994072,39.0000000000,0.0000000000,3.0000000000,112.0000000000,115.0000000000,0.0000000000
1717674994072,40.0000000000,0.0000000000,3.0000000000,112.0000000000,115.0000000000,0.0000000000
1717674994072,39.0000000000,0.0000000000,3.0000000000,111.0000000000,115.0000000000,0.0000000000
1717674994072,39.0000000000,0.0000000000,3.0000000000,111.0000000000,114.0000000000,0.0000000000
1717674994073,39.0000000000,0.0000000000,3.0000000000,110.0000000000,113.0000000000,0.0000000000
1717674994073,39.0000000000,0.0000000000,2.0000000000,110.0000000000,113.0000000000,0.0000000000
1717674994073,39.0000000000,0.0000000000,3.0000000000,110.0000000000,112.0000000000,0.0000000000
1717674994073,39.0000000000,0.0000000000,3.0000000000,108.0000000000,112.0000000000,0.0000000000
1717674994074,39.0000000000,0.0000000000,3.0000000000,108.0000000000,111.0000000000,0.0000000000
1717674994074,39.0000000000,0.0000000000,3.0000000000,108.0000000000,111.0000000000,0.0000000000
1717674994074,39.0000000000,0.0000000000,3.0000000000,107.0000000000,110.0000000000,0.0000000000
1717674994075,38.0000000000,0.0000000000,3.0000000000,107.0000000000,110.0000000000,0.0000000000
1717674994075,38.0000000000,0.0000000000,3.0000000000,106.0000000000,109.0000000000,0.0000000000
1717674994075,38.0000000000,0.0000000000,2.0000000000,105.0000000000,108.0000000000,0.0000000000
1717674994075,38.0000000000,0.0000000000,2.0000000000,105.0000000000,108.0000000000,0.0000000000
1717674994076,37.0000000000,0.0000000000,3.0000000000,104.0000000000,108.0000000000,0.0000000000
1717674994076,37.0000000000,0.0000000000,3.0000000000,103.0000000000,107.0000000000,0.0000000000
1717674994076,38.0000000000,0.0000000000,3.0000000000,103.0000000000,106.0000000000,5.0000000000
1717674994076,36.0000000000,0.0000000000,2.0000000000,103.0000000000,106.0000000000,5.0000000000
1717674994102,39.0000000000,0.0000000000,2.0000000000,103.0000000000,105.0000000000,6.0000000000
1717674994103,44.0000000000,0.0000000000,3.0000000000,103.0000000000,104.0000000000,6.0000000000
1717674994104,43.0000000000,0.0000000000,3.0000000000,102.0000000000,103.0000000000,6.0000000000
1717674994104,42.0000000000,0.0000000000,2.0000000000,102.0000000000,103.0000000000,5.0000000000
1717674994104,43.0000000000,0.0000000000,2.0000000000,101.0000000000,103.0000000000,6.0000000000
1717674994104,42.0000000000,0.0000000000,2.0000000000,100.0000000000,103.0000000000,5.0000000000
1717674994105,42.0000000000,0.0000000000,2.0000000000,100.0000000000,103.0000000000,5.0000000000
1717674994105,41.0000000000,0.0000000000,2.0000000000,99.0000000000,102.0000000000,6.0000000000
1717674994105,41.0000000000,0.0000000000,2.0000000000,99.0000000000,101.0000000000,4.0000000000
1717674994105,41.0000000000,0.0000000000,3.0000000000,99.0000000000,100.0000000000,6.0000000000
1717674994106,40.0000000000,0.0000000000,3.0000000000,99.0000000000,100.0000000000,5.0000000000
1717674994106,39.0000000000,0.0000000000,3.0000000000,98.0000000000,100.0000000000,6.0000000000
1717674994106,40.0000000000,0.0000000000,3.0000000000,98.0000000000,99.0000000000,5.0000000000
1717674994106,39.0000000000,0.0000000000,3.0000000000,97.0000000000,99.0000000000,5.0000000000
1717674994107,40.0000000000,0.0000000000,3.0000000000,97.0000000000,98.0000000000,5.0000000000
1717674994107,39.0000000000,0.0000000000,3.0000000000,96.0000000000,98.0000000000,5.0000000000
1717674994107,39.0000000000,0.0000000000,3.0000000000,96.0000000000,97.0000000000,5.0000000000
1717674994107,39.0000000000,0.0000000000,3.0000000000,134.0000000000,97.0000000000,4.0000000000
1717674994108,39.0000000000,0.0000000000,2.0000000000,132.0000000000,97.0000000000,4.0000000000
1717674994108,39.0000000000,0.0000000000,3.0000000000,131.0000000000,96.0000000000,4.0000000000
1717674994108,39.0000000000,0.0000000000,2.0000000000,131.0000000000,96.0000000000,5.0000000000
1717674994109,39.0000000000,0.0000000000,3.0000000000,130.0000000000,96.0000000000,4.0000000000
1717674994137,39.0000000000,0.0000000000,3.0000000000,129.0000000000,96.0000000000,5.0000000000
1717674994137,38.0000000000,0.0000000000,3.0000000000,129.0000000000,95.0000000000,4.0000000000
1717674994138,38.0000000000,0.0000000000,3.0000000000,127.0000000000,95.0000000000,4.0000000000
1717674994138,38.0000000000,0.0000000000,3.0000000000,127.0000000000,94.0000000000,4.0000000000
1717674994138,38.0000000000,0.0000000000,3.0000000000,127.0000000000,93.0000000000,4.0000000000
1717674994138,38.0000000000,0.0000000000,3.0000000000,127.0000000000,93.0000000000,4.0000000000
1717674994138,43.0000000000,0.0000000000,3.0000000000,126.0000000000,92.0000000000,4.0000000000
1717674994138,42.0000000000,0.0000000000,3.0000000000,125.0000000000,92.0000000000,4.0000000000
1717674994138,42.0000000000,0.0000000000,3.0000000000,124.0000000000,92.0000000000,4.0000000000
1717674994138,41.0000000000,0.0000000000,3.0000000000,124.0000000000,92.0000000000,4.0000000000
1717674994138,41.0000000000,0.0000000000,3.0000000000,123.0000000000,91.0000000000,4.0000000000
1717674994138,40.0000000000,0.0000000000,3.0000000000,123.0000000000,91.0000000000,4.0000000000
1717674994138,40.0000000000,0.0000000000,3.0000000000,121.0000000000,91.0000000000,4.0000000000
1717674994139,40.0000000000,0.0000000000,3.0000000000,121.0000000000,90.0000000000,4.0000000000
1717674994139,39.0000000000,0.0000000000,3.0000000000,120.0000000000,89.0000000000,4.0000000000
1717674994139,39.0000000000,0.0000000000,3.0000000000,120.0000000000,89.0000000000,4.0000000000
1717674994139,39.0000000000,0.0000000000,3.0000000000,120.0000000000,88.0000000000,4.0000000000
1717674994139,39.0000000000,0.0000000000,3.0000000000,119.0000000000,88.0000000000,4.0000000000
1717674994139,39.0000000000,0.0000000000,3.0000000000,118.0000000000,88.0000000000,4.0000000000
1717674994139,39.0000000000,0.0000000000,3.0000000000,118.0000000000,88.0000000000,3.0000000000
1717674994153,50.0000000000,0.0000000000,3.0000000000,116.0000000000,87.0000000000,3.0000000000
1717674994153,49.0000000000,0.0000000000,3.0000000000,116.0000000000,87.0000000000,3.0000000000
1717674994154,48.0000000000,0.0000000000,3.0000000000,115.0000000000,87.0000000000,4.0000000000
1717674994154,49.0000000000,0.0000000000,3.0000000000,115.0000000000,86.0000000000,3.0000000000
1717674994154,48.0000000000,0.0000000000,3.0000000000,115.0000000000,86.0000000000,4.0000000000
1717674994154,48.0000000000,0.0000000000,3.0000000000,114.0000000000,85.0000000000,3.0000000000
1717674994154,48.0000000000,0.0000000000,3.0000000000,113.0000000000,84.0000000000,4.0000000000
1717674994154,48.0000000000,0.0000000000,3.0000000000,113.0000000000,84.0000000000,3.0000000000
1717674994154,48.0000000000,0.0000000000,3.0000000000,112.0000000000,84.0000000000,4.0000000000
1717674994154,47.0000000000,0.0000000000,3.0000000000,112.0000000000,84.0000000000,4.0000000000
1717674994154,47.0000000000,0.0000000000,3.0000000000,111.0000000000,83.0000000000,3.0000000000
1717674994167,46.0000000000,0.0000000000,3.0000000000,111.0000000000,83.0000000000,3.0000000000
1717674994167,46.0000000000,0.0000000000,3.0000000000,110.0000000000,83.0000000000,3.0000000000
1717674994167,46.0000000000,0.0000000000,3.0000000000,110.0000000000,83.0000000000,3.0000000000
1717674994167,46.0000000000,0.0000000000,3.0000000000,109.0000000000,82.0000000000,3.0000000000
1717674994168,46.0000000000,0.0000000000,3.0000000000,109.0000000000,81.0000000000,3.0000000000
1717674994168,46.0000000000,0.0000000000,3.0000000000,108.0000000000,81.0000000000,3.0000000000
1717674994168,45.0000000000,0.0000000000,3.0000000000,108.0000000000,81.0000000000,3.0000000000
1717674994168,45.0000000000,0.0000000000,3.0000000000,107.0000000000,80.0000000000,3.0000000000
1717674994168,45.0000000000,0.0000000000,3.0000000000,107.0000000000,79.0000000000,3.0000000000
1717674994186,44.0000000000,0.0000000000,3.0000000000,106.0000000000,80.0000000000,3.0000000000
1717674994186,44.0000000000,0.0000000000,3.0000000000,105.0000000000,79.0000000000,3.0000000000
1717674994186,44.0000000000,0.0000000000,3.0000000000,105.0000000000,79.0000000000,3.0000000000
1717674994186,44.0000000000,0.0000000000,4.0000000000,104.0000000000,78.0000000000,3.0000000000
1717674994187,44.0000000000,0.0000000000,5.0000000000,103.0000000000,79.0000000000,3.0000000000
1717674994187,44.0000000000,0.0000000000,4.0000000000,103.0000000000,79.0000000000,3.0000000000
1717674994187,43.0000000000,0.0000000000,4.0000000000,103.0000000000,78.0000000000,3.0000000000
1717674994187,43.0000000000,0.0000000000,4.0000000000,103.0000000000,78.0000000000,3.0000000000
1717674994187,43.0000000000,0.0000000000,4.0000000000,102.0000000000,77.0000000000,3.0000000000
1717674994187,43.0000000000,0.0000000000,4.0000000000,102.0000000000,77.0000000000,3.0000000000
1717674994187,43.0000000000,0.0000000000,4.0000000000,102.0000000000,76.0000000000,3.0000000000
1717674994187,43.0000000000,0.0000000000,4.0000000000,100.0000000000,76.0000000000,3.0000000000
1717674994187,42.0000000000,0.0000000000,4.0000000000,100.0000000000,76.0000000000,3.0000000000
1717674994187,42.0000000000,0.0000000000,4.0000000000,99.0000000000,76.0000000000,3.0000000000
1717674994200,41.0000000000,0.0000000000,4.0000000000,99.0000000000,76.0000000000,3.0000000000
1717674994201,41.0000000000,0.0000000000,4.0000000000,99.0000000000,75.0000000000,3.0000000000
1717674994201,41.0000000000,0.0000000000,4.0000000000,98.0000000000,75.0000000000,3.0000000000
1717674994201,41.0000000000,0.0000000000,4.0000000000,98.0000000000,75.0000000000,3.0000000000
1717674994201,41.0000000000,0.0000000000,4.0000000000,98.0000000000,73.0000000000,3.0000000000
1717674994202,40.0000000000,0.0000000000,4.0000000000,97.0000000000,73.0000000000,3.0000000000
1717674994202,40.0000000000,0.0000000000,4.0000000000,97.0000000000,73.0000000000,3.0000000000
1717674994202,40.0000000000,0.0000000000,4.0000000000,96.0000000000,73.0000000000,7.0000000000
1717674994202,40.0000000000,0.0000000000,4.0000000000,96.0000000000,73.0000000000,7.0000000000
1717674994202,40.0000000000,0.0000000000,4.0000000000,96.0000000000,72.0000000000,7.0000000000
1717674994202,39.0000000000,0.0000000000,4.0000000000,147.0000000000,71.0000000000,7.0000000000
1717674994202,39.0000000000,0.0000000000,4.0000000000,145.0000000000,71.0000000000,7.0000000000
1717674994215,39.0000000000,0.0000000000,4.0000000000,144.0000000000,71.0000000000,7.0000000000
1717674994216,39.0000000000,0.0000000000,3.0000000000,143.0000000000,71.0000000000,7.0000000000
1717674994216,39.0000000000,0.0000000000,3.0000000000,143.0000000000,71.0000000000,7.0000000000
1717674994216,39.0000000000,0.0000000000,4.0000000000,142.0000000000,123.0000000000,7.0000000000
1717674994216,39.0000000000,0.0000000000,4.0000000000,141.0000000000,121.0000000000,7.0000000000
1717674994216,39.0000000000,0.0000000000,4.0000000000,140.0000000000,121.0000000000,7.0000000000
1717674994216,39.0000000000,0.0000000000,4.0000000000,140.0000000000,120.0000000000,7.0000000000
1717674994216,39.0000000000,0.0000000000,4.0000000000,139.0000000000,120.0000000000,7.0000000000
1717674994238,38.0000000000,0.0000000000,4.0000000000,137.0000000000,119.0000000000,7.0000000000
1717674994238,38.0000000000,0.0000000000,4.0000000000,136.0000000000,118.0000000000,7.0000000000
1717674994238,38.0000000000,0.0000000000,4.0000000000,135.0000000000,117.0000000000,7.0000000000
1717674994238,38.0000000000,0.0000000000,3.0000000000,135.0000000000,116.0000000000,7.0000000000
1717674994239,38.0000000000,0.0000000000,3.0000000000,135.0000000000,115.0000000000,7.0000000000
1717674994239,38.0000000000,0.0000000000,3.0000000000,134.0000000000,117.0000000000,7.0000000000
1717674994239,37.0000000000,0.0000000000,3.0000000000,133.0000000000,122.0000000000,7.0000000000
1717674994239,36.0000000000,0.0000000000,4.0000000000,132.0000000000,121.0000000000,7.0000000000
1717674994239,36.0000000000,0.0000000000,3.0000000000,131.0000000000,120.0000000000,6.0000000000
1717674994239,36.0000000000,0.0000000000,3.0000000000,131.0000000000,120.0000000000,6.0000000000
1717674994239,36.0000000000,0.0000000000,3.0000000000,130.0000000000,120.0000000000,7.0000000000
1717674994239,36.0000000000,0.0000000000,3.0000000000,130.0000000000,119.0000000000,7.0000000000
1717674994240,36.0000000000,0.0000000000,3.0000000000,129.0000000000,118.0000000000,7.0000000000
1717674994240,35.0000000000,0.0000000000,3.0000000000,127.0000000000,118.0000000000,6.0000000000
1717674994240,35.0000000000,0.0000000000,3.0000000000,127.0000000000,116.0000000000,7.0000000000
1717674994240,36.0000000000,0.0000000000,3.0000000000,127.0000000000,116.0000000000,6.0000000000
1717674994254,36.0000000000,0.0000000000,3.0000000000,126.0000000000,115.0000000000,6.0000000000
1717674994255,35.0000000000,0.0000000000,3.0000000000,126.0000000000,115.0000000000,6.0000000000
1717674994255,35.0000000000,0.0000000000,3.0000000000,124.0000000000,114.0000000000,6.0000000000
1717674994255,35.0000000000,0.0000000000,3.0000000000,124.0000000000,113.0000000000,6.0000000000
1717674994255,35.0000000000,0.0000000000,3.0000000000,124.0000000000,113.0000000000,6.0000000000
1717674994255,35.0000000000,0.0000000000,3.0000000000,124.0000000000,112.0000000000,6.0000000000
1717674994255,35.0000000000,0.0000000000,3.0000000000,123.0000000000,112.0000000000,6.0000000000
1717674994255,35.0000000000,0.0000000000,3.0000000000,122.0000000000,112.0000000000,6.0000000000
1717674994255,35.0000000000,0.0000000000,3.0000000000,121.0000000000,111.0000000000,6.0000000000
1717674994256,35.0000000000,0.0000000000,3.0000000000,120.0000000000,110.0000000000,6.0000000000
1717674994256,35.0000000000,0.0000000000,3.0000000000,120.0000000000,110.0000000000,6.0000000000
1717674994271,34.0000000000,0.0000000000,3.0000000000,120.0000000000,109.0000000000,6.0000000000
1717674994271,34.0000000000,0.0000000000,3.0000000000,119.0000000000,108.0000000000,6.0000000000
1717674994271,34.0000000000,0.0000000000,3.0000000000,118.0000000000,108.0000000000,6.0000000000
1717674994272,34.0000000000,0.0000000000,3.0000000000,118.0000000000,107.0000000000,5.0000000000
1717674994272,34.0000000000,0.0000000000,3.0000000000,116.0000000000,107.0000000000,6.0000000000
1717674994272,33.0000000000,0.0000000000,3.0000000000,116.0000000000,107.0000000000,5.0000000000
1717674994272,33.0000000000,0.0000000000,3.0000000000,116.0000000000,105.0000000000,6.0000000000
1717674994272,33.0000000000,0.0000000000,3.0000000000,115.0000000000,104.0000000000,5.0000000000
1717674994272,32.0000000000,0.0000000000,3.0000000000,115.0000000000,104.0000000000,6.0000000000
1717674994272,33.0000000000,0.0000000000,3.0000000000,114.0000000000,103.0000000000,6.0000000000
1717674994273,32.0000000000,0.0000000000,3.0000000000,113.0000000000,103.0000000000,5.0000000000
1717674994287,32.0000000000,0.0000000000,3.0000000000,113.0000000000,103.0000000000,5.0000000000
1717674994288,32.0000000000,0.0000000000,3.0000000000,112.0000000000,103.0000000000,5.0000000000
1717674994288,32.0000000000,0.0000000000,3.0000000000,112.0000000000,102.0000000000,4.0000000000
1717674994288,32.0000000000,0.0000000000,3.0000000000,111.0000000000,102.0000000000,5.0000000000
1717674994288,31.0000000000,0.0000000000,3.0000000000,110.0000000000,101.0000000000,5.0000000000
1717674994288,31.0000000000,0.0000000000,3.0000000000,110.0000000000,100.0000000000,5.0000000000
1717674994288,31.0000000000,0.0000000000,3.0000000000,110.0000000000,99.0000000000,5.0000000000
1717674994288,31.0000000000,0.0000000000,3.0000000000,109.0000000000,99.0000000000,5.0000000000
1717674994288,31.0000000000,0.0000000000,3.0000000000,108.0000000000,99.0000000000,5.0000000000
1717674994288,31.0000000000,0.0000000000,3.0000000000,108.0000000000,98.0000000000,5.0000000000
1717674994288,31.0000000000,0.0000000000,3.0000000000,107.0000000000,99.0000000000,5.0000000000
1717674994302,31.0000000000,0.0000000000,3.0000000000,107.0000000000,98.0000000000,5.0000000000
1717674994303,31.0000000000,0.0000000000,3.0000000000,107.0000000000,97.0000000000,5.0000000000
1717674994303,30.0000000000,0.0000000000,3.0000000000,107.0000000000,188.0000000000,6.0000000000
1717674994303,30.0000000000,0.0000000000,2.0000000000,105.0000000000,188.0000000000,5.0000000000
1717674994303,30.0000000000,0.0000000000,3.0000000000,104.0000000000,187.0000000000,4.0000000000
1717674994303,30.0000000000,0.0000000000,3.0000000000,103.0000000000,185.0000000000,4.0000000000
1717674994303,30.0000000000,0.0000000000,2.0000000000,103.0000000000,184.0000000000,4.0000000000
1717674994303,29.0000000000,0.0000000000,3.0000000000,103.0000000000,183.0000000000,51.0000000000
1717674994318,30.0000000000,0.0000000000,2.0000000000,103.0000000000,182.0000000000,135.0000000000
1717674994319,29.0000000000,0.0000000000,2.0000000000,103.0000000000,180.0000000000,132.0000000000
1717674994319,29.0000000000,0.0000000000,3.0000000000,102.0000000000,223.0000000000,131.0000000000
1717674994319,29.0000000000,0.0000000000,3.0000000000,101.0000000000,243.0000000000,131.0000000000
1717674994319,29.0000000000,0.0000000000,3.0000000000,100.0000000000,241.0000000000,129.0000000000
1717674994319,29.0000000000,0.0000000000,2.0000000000,166.0000000000,240.0000000000,127.0000000000
1717674994320,29.0000000000,0.0000000000,2.0000000000,227.0000000000,238.0000000000,127.0000000000
1717674994320,28.0000000000,0.0000000000,2.0000000000,225.0000000000,236.0000000000,127.0000000000
1717674994320,28.0000000000,0.0000000000,3.0000000000,223.0000000000,235.0000000000,126.0000000000
1717674994320,29.0000000000,0.0000000000,2.0000000000,221.0000000000,233.0000000000,125.0000000000
1717674994321,30.0000000000,0.0000000000,2.0000000000,220.0000000000,231.0000000000,124.0000000000
1717674994321,30.0000000000,0.0000000000,2.0000000000,219.0000000000,231.0000000000,123.0000000000
1717674994336,30.0000000000,0.0000000000,1.0000000000,217.0000000000,229.0000000000,166.0000000000
1717674994337,29.0000000000,0.0000000000,2.0000000000,216.0000000000,227.0000000000,182.0000000000
1717674994337,29.0000000000,0.0000000000,3.0000000000,214.0000000000,229.0000000000,180.0000000000
1717674994337,29.0000000000,0.0000000000,4.0000000000,213.0000000000,311.0000000000,179.0000000000
1717674994337,29.0000000000,0.0000000000,3.0000000000,211.0000000000,308.0000000000,177.0000000000
1717674994337,28.0000000000,0.0000000000,4.0000000000,210.0000000000,305.0000000000,176.0000000000
1717674994337,29.0000000000,0.0000000000,3.0000000000,209.0000000000,304.0000000000,175.0000000000
1717674994338,28.0000000000,0.0000000000,3.0000000000,207.0000000000,302.0000000000,174.0000000000
1717674994338,28.0000000000,0.0000000000,3.0000000000,207.0000000000,299.0000000000,173.0000000000
1717674994352,28.0000000000,0.0000000000,3.0000000000,205.0000000000,297.0000000000,172.0000000000
1717674994353,28.0000000000,0.0000000000,3.0000000000,204.0000000000,295.0000000000,171.0000000000
1717674994353,28.0000000000,0.0000000000,3.0000000000,203.0000000000,294.0000000000,170.0000000000
1717674994353,28.0000000000,0.0000000000,3.0000000000,201.0000000000,291.0000000000,169.0000000000
1717674994353,28.0000000000,0.0000000000,3.0000000000,199.0000000000,289.0000000000,167.0000000000
1717674994353,28.0000000000,0.0000000000,6.0000000000,199.0000000000,287.0000000000,167.0000000000
1717674994353,27.0000000000,0.0000000000,6.0000000000,198.0000000000,286.0000000000,166.0000000000
1717674994354,28.0000000000,0.0000000000,7.0000000000,196.0000000000,284.0000000000,165.0000000000
1717674994354,27.0000000000,0.0000000000,11.0000000000,195.0000000000,283.0000000000,163.0000000000
1717674994354,27.0000000000,0.0000000000,24.0000000000,194.0000000000,281.0000000000,163.0000000000
1717674994368,27.0000000000,0.0000000000,23.0000000000,193.0000000000,280.0000000000,262.0000000000
1717674994369,27.0000000000,0.0000000000,23.0000000000,192.0000000000,278.0000000000,260.0000000000
1717674994369,27.0000000000,0.0000000000,23.0000000000,191.0000000000,275.0000000000,257.0000000000
1717674994369,27.0000000000,0.0000000000,22.0000000000,190.0000000000,273.0000000000,255.0000000000
1717674994369,27.0000000000,0.0000000000,22.0000000000,189.0000000000,272.0000000000,254.0000000000
1717674994369,27.0000000000,0.0000000000,22.0000000000,188.0000000000,271.0000000000,252.0000000000
1717674994369,27.0000000000,0.0000000000,22.0000000000,187.0000000000,269.0000000000,251.0000000000
1717674994382,26.0000000000,0.0000000000,22.0000000000,185.0000000000,355.0000000000,249.0000000000
1717674994382,25.0000000000,0.0000000000,30.0000000000,184.0000000000,414.0000000000,247.0000000000
1717674994382,25.0000000000,0.0000000000,30.0000000000,183.0000000000,411.0000000000,244.0000000000
1717674994382,26.0000000000,0.0000000000,29.0000000000,183.0000000000,408.0000000000,243.0000000000
1717674994383,25.0000000000,0.0000000000,29.0000000000,181.0000000000,403.0000000000,259.0000000000
1717674994383,25.0000000000,0.0000000000,29.0000000000,180.0000000000,463.0000000000,288.0000000000
1717674994383,25.0000000000,0.0000000000,29.0000000000,179.0000000000,480.0000000000,285.0000000000
1717674994383,24.0000000000,0.0000000000,28.0000000000,178.0000000000,476.0000000000,284.0000000000
1717674994383,25.0000000000,0.0000000000,28.0000000000,177.0000000000,571.0000000000,281.0000000000
1717674994398,24.0000000000,0.0000000000,28.0000000000,176.0000000000,564.0000000000,280.0000000000
1717674994399,25.0000000000,0.0000000000,28.0000000000,175.0000000000,558.0000000000,278.0000000000
1717674994399,24.0000000000,0.0000000000,29.0000000000,174.0000000000,553.0000000000,275.0000000000
1717674994399,24.0000000000,0.0000000000,29.0000000000,173.0000000000,548.0000000000,273.0000000000
1717674994399,24.0000000000,1.0000000000,28.0000000000,172.0000000000,543.0000000000,271.0000000000
1717674994399,24.0000000000,0.0000000000,28.0000000000,171.0000000000,538.0000000000,270.0000000000
1717674994399,24.0000000000,0.0000000000,30.0000000000,251.0000000000,534.0000000000,268.0000000000
1717674994399,24.0000000000,0.0000000000,30.0000000000,248.0000000000,529.0000000000,267.0000000000
1717674994399,24.0000000000,1.0000000000,30.0000000000,246.0000000000,524.0000000000,264.0000000000
1717674994412,24.0000000000,0.0000000000,29.0000000000,243.0000000000,519.0000000000,263.0000000000
1717674994413,23.0000000000,1.0000000000,29.0000000000,242.0000000000,515.0000000000,262.0000000000
1717674994413,23.0000000000,0.0000000000,29.0000000000,300.0000000000,511.0000000000,259.0000000000
1717674994413,23.0000000000,0.0000000000,29.0000000000,295.0000000000,608.0000000000,258.0000000000
1717674994413,23.0000000000,0.0000000000,29.0000000000,294.0000000000,600.0000000000,255.0000000000
1717674994413,23.0000000000,0.0000000000,37.0000000000,291.0000000000,592.0000000000,255.0000000000
1717674994413,23.0000000000,0.0000000000,53.0000000000,289.0000000000,588.0000000000,253.0000000000
1717674994426,23.0000000000,1.0000000000,52.0000000000,287.0000000000,582.0000000000,252.0000000000
1717674994426,23.0000000000,0.0000000000,52.0000000000,284.0000000000,577.0000000000,250.0000000000
1717674994427,22.0000000000,0.0000000000,51.0000000000,283.0000000000,571.0000000000,248.0000000000
1717674994427,22.0000000000,0.0000000000,51.0000000000,280.0000000000,568.0000000000,248.0000000000
1717674994427,22.0000000000,0.0000000000,51.0000000000,279.0000000000,561.0000000000,246.0000000000
1717674994427,22.0000000000,0.0000000000,50.0000000000,277.0000000000,556.0000000000,243.0000000000
1717674994427,22.0000000000,0.0000000000,50.0000000000,275.0000000000,551.0000000000,243.0000000000
1717674994428,21.0000000000,0.0000000000,49.0000000000,273.0000000000,547.0000000000,345.0000000000
1717674994428,21.0000000000,7.0000000000,49.0000000000,271.0000000000,543.0000000000,367.0000000000
1717674994454,21.0000000000,10.0000000000,49.0000000000,270.0000000000,537.0000000000,363.0000000000
1717674994456,20.0000000000,11.0000000000,49.0000000000,268.0000000000,532.0000000000,359.0000000000
1717674994456,20.0000000000,11.0000000000,48.0000000000,265.0000000000,527.0000000000,356.0000000000
1717674994456,21.0000000000,10.0000000000,48.0000000000,263.0000000000,524.0000000000,354.0000000000
1717674994457,20.0000000000,10.0000000000,48.0000000000,262.0000000000,519.0000000000,351.0000000000
1717674994457,20.0000000000,9.0000000000,48.0000000000,261.0000000000,515.0000000000,349.0000000000
1717674994457,20.0000000000,9.0000000000,47.0000000000,259.0000000000,511.0000000000,347.0000000000
1717674994458,20.0000000000,9.0000000000,47.0000000000,257.0000000000,507.0000000000,344.0000000000
1717674994458,19.0000000000,10.0000000000,47.0000000000,255.0000000000,504.0000000000,413.0000000000
1717674994458,20.0000000000,12.0000000000,59.0000000000,254.0000000000,499.0000000000,467.0000000000
1717674994458,19.0000000000,30.0000000000,80.0000000000,252.0000000000,495.0000000000,463.0000000000
1717674994459,19.0000000000,29.0000000000,79.0000000000,251.0000000000,491.0000000000,459.0000000000
1717674994459,19.0000000000,29.0000000000,79.0000000000,249.0000000000,583.0000000000,455.0000000000
1717674994459,19.0000000000,29.0000000000,78.0000000000,248.0000000000,647.0000000000,450.0000000000
1717674994460,19.0000000000,28.0000000000,77.0000000000,246.0000000000,641.0000000000,446.0000000000
1717674994460,19.0000000000,28.0000000000,77.0000000000,243.0000000000,634.0000000000,442.0000000000
1717674994460,19.0000000000,28.0000000000,76.0000000000,243.0000000000,627.0000000000,440.0000000000
1717674994461,19.0000000000,28.0000000000,76.0000000000,304.0000000000,620.0000000000,435.0000000000
1717674994475,19.0000000000,28.0000000000,75.0000000000,300.0000000000,615.0000000000,432.0000000000
1717674994476,19.0000000000,28.0000000000,75.0000000000,297.0000000000,608.0000000000,428.0000000000
1717674994476,19.0000000000,27.0000000000,74.0000000000,295.0000000000,603.0000000000,425.0000000000
1717674994476,18.0000000000,27.0000000000,74.0000000000,294.0000000000,596.0000000000,422.0000000000
1717674994476,19.0000000000,27.0000000000,73.0000000000,291.0000000000,591.0000000000,419.0000000000
1717674994476,18.0000000000,27.0000000000,72.0000000000,289.0000000000,585.0000000000,415.0000000000
1717674994491,19.0000000000,27.0000000000,72.0000000000,287.0000000000,580.0000000000,412.0000000000
1717674994492,18.0000000000,26.0000000000,71.0000000000,285.0000000000,575.0000000000,409.0000000000
1717674994493,18.0000000000,25.0000000000,71.0000000000,283.0000000000,571.0000000000,406.0000000000
1717674994493,18.0000000000,26.0000000000,71.0000000000,280.0000000000,565.0000000000,403.0000000000
1717674994493,17.0000000000,25.0000000000,71.0000000000,280.0000000000,560.0000000000,399.0000000000
1717674994493,17.0000000000,25.0000000000,70.0000000000,278.0000000000,555.0000000000,397.0000000000
1717674994494,17.0000000000,24.0000000000,70.0000000000,275.0000000000,551.0000000000,393.0000000000
1717674994494,17.0000000000,25.0000000000,69.0000000000,273.0000000000,545.0000000000,391.0000000000
1717674994494,17.0000000000,25.0000000000,69.0000000000,271.0000000000,540.0000000000,388.0000000000
1717674994495,17.0000000000,25.0000000000,68.0000000000,270.0000000000,536.0000000000,563.0000000000
1717674994495,17.0000000000,24.0000000000,67.0000000000,268.0000000000,531.0000000000,608.0000000000
1717674994516,17.0000000000,24.0000000000,67.0000000000,284.0000000000,527.0000000000,601.0000000000
1717674994517,16.0000000000,24.0000000000,67.0000000000,281.0000000000,523.0000000000,595.0000000000
1717674994518,17.0000000000,24.0000000000,67.0000000000,279.0000000000,518.0000000000,590.0000000000
1717674994518,17.0000000000,24.0000000000,66.0000000000,277.0000000000,515.0000000000,583.0000000000
1717674994518,17.0000000000,24.0000000000,66.0000000000,275.0000000000,585.0000000000,697.0000000000
1717674994519,16.0000000000,24.0000000000,65.0000000000,272.0000000000,579.0000000000,703.0000000000
1717674994519,16.0000000000,24.0000000000,65.0000000000,271.0000000000,573.0000000000,694.0000000000
1717674994519,15.0000000000,23.0000000000,64.0000000000,269.0000000000,568.0000000000,686.0000000000
1717674994520,15.0000000000,23.0000000000,65.0000000000,267.0000000000,563.0000000000,676.0000000000
1717674994520,15.0000000000,23.0000000000,63.0000000000,265.0000000000,556.0000000000,670.0000000000
1717674994520,15.0000000000,23.0000000000,63.0000000000,263.0000000000,551.0000000000,664.0000000000
1717674994521,15.0000000000,22.0000000000,63.0000000000,262.0000000000,546.0000000000,655.0000000000
1717674994521,15.0000000000,23.0000000000,63.0000000000,260.0000000000,542.0000000000,648.0000000000
1717674994521,15.0000000000,23.0000000000,63.0000000000,258.0000000000,536.0000000000,642.0000000000
1717674994521,15.0000000000,22.0000000000,63.0000000000,257.0000000000,531.0000000000,637.0000000000
1717674994522,15.0000000000,22.0000000000,62.0000000000,255.0000000000,527.0000000000,630.0000000000
1717674994539,15.0000000000,22.0000000000,62.0000000000,253.0000000000,524.0000000000,624.0000000000
1717674994540,15.0000000000,22.0000000000,61.0000000000,251.0000000000,519.0000000000,617.0000000000
1717674994540,15.0000000000,22.0000000000,61.0000000000,250.0000000000,513.0000000000,612.0000000000
1717674994540,15.0000000000,22.0000000000,61.0000000000,248.0000000000,509.0000000000,606.0000000000
1717674994540,15.0000000000,22.0000000000,60.0000000000,247.0000000000,505.0000000000,600.0000000000
1717674994541,15.0000000000,20.0000000000,60.0000000000,245.0000000000,502.0000000000,594.0000000000
1717674994541,15.0000000000,21.0000000000,59.0000000000,243.0000000000,497.0000000000,590.0000000000
1717674994541,15.0000000000,21.0000000000,59.0000000000,242.0000000000,493.0000000000,583.0000000000
1717674994541,15.0000000000,21.0000000000,59.0000000000,240.0000000000,489.0000000000,579.0000000000
1717674994541,14.0000000000,20.0000000000,58.0000000000,239.0000000000,486.0000000000,573.0000000000
1717674994555,14.0000000000,20.0000000000,57.0000000000,238.0000000000,482.0000000000,569.0000000000
1717674994556,14.0000000000,20.0000000000,57.0000000000,236.0000000000,478.0000000000,689.0000000000
1717674994556,14.0000000000,19.0000000000,57.0000000000,235.0000000000,476.0000000000,795.0000000000
1717674994556,14.0000000000,20.0000000000,57.0000000000,233.0000000000,472.0000000000,783.0000000000
1717674994556,14.0000000000,20.0000000000,56.0000000000,231.0000000000,467.0000000000,775.0000000000
1717674994556,14.0000000000,19.0000000000,56.0000000000,231.0000000000,463.0000000000,766.0000000000
1717674994556,14.0000000000,19.0000000000,56.0000000000,229.0000000000,461.0000000000,755.0000000000
1717674994571,14.0000000000,19.0000000000,56.0000000000,227.0000000000,457.0000000000,747.0000000000
1717674994571,14.0000000000,19.0000000000,56.0000000000,225.0000000000,454.0000000000,739.0000000000
1717674994571,13.0000000000,19.0000000000,55.0000000000,224.0000000000,450.0000000000,731.0000000000
1717674994571,13.0000000000,19.0000000000,54.0000000000,224.0000000000,447.0000000000,722.0000000000
1717674994571,13.0000000000,19.0000000000,54.0000000000,222.0000000000,444.0000000000,713.0000000000
1717674994571,14.0000000000,19.0000000000,54.0000000000,220.0000000000,441.0000000000,706.0000000000
1717674994572,13.0000000000,19.0000000000,54.0000000000,220.0000000000,438.0000000000,700.0000000000
1717674994572,13.0000000000,19.0000000000,52.0000000000,217.0000000000,435.0000000000,691.0000000000
1717674994572,13.0000000000,18.0000000000,53.0000000000,216.0000000000,432.0000000000,684.0000000000
1717674994586,13.0000000000,18.0000000000,52.0000000000,215.0000000000,429.0000000000,676.0000000000
1717674994587,13.0000000000,18.0000000000,52.0000000000,215.0000000000,425.0000000000,671.0000000000
1717674994587,12.0000000000,18.0000000000,51.0000000000,213.0000000000,423.0000000000,664.0000000000
1717674994587,12.0000000000,18.0000000000,51.0000000000,211.0000000000,420.0000000000,657.0000000000
1717674994587,12.0000000000,18.0000000000,51.0000000000,210.0000000000,417.0000000000,651.0000000000
1717674994587,12.0000000000,18.0000000000,51.0000000000,209.0000000000,415.0000000000,646.0000000000
1717674994587,12.0000000000,17.0000000000,51.0000000000,207.0000000000,412.0000000000,639.0000000000
1717674994587,12.0000000000,17.0000000000,50.0000000000,206.0000000000,409.0000000000,632.0000000000
1717674994588,12.0000000000,17.0000000000,51.0000000000,205.0000000000,407.0000000000,626.0000000000
1717674994603,12.0000000000,17.0000000000,49.0000000000,204.0000000000,403.0000000000,621.0000000000
1717674994604,12.0000000000,17.0000000000,49.0000000000,203.0000000000,400.0000000000,615.0000000000
1717674994604,12.0000000000,17.0000000000,49.0000000000,201.0000000000,398.0000000000,608.0000000000
1717674994604,12.0000000000,16.0000000000,49.0000000000,199.0000000000,396.0000000000,603.0000000000
1717674994604,12.0000000000,17.0000000000,48.0000000000,199.0000000000,391.0000000000,599.0000000000
1717674994605,12.0000000000,16.0000000000,48.0000000000,224.0000000000,390.0000000000,592.0000000000
1717674994605,12.0000000000,16.0000000000,48.0000000000,222.0000000000,387.0000000000,587.0000000000
1717674994605,12.0000000000,16.0000000000,48.0000000000,220.0000000000,384.0000000000,582.0000000000
1717674994620,12.0000000000,16.0000000000,49.0000000000,219.0000000000,384.0000000000,727.0000000000
1717674994620,12.0000000000,21.0000000000,54.0000000000,217.0000000000,380.0000000000,717.0000000000
1717674994620,11.0000000000,20.0000000000,53.0000000000,248.0000000000,377.0000000000,707.0000000000
1717674994620,11.0000000000,21.0000000000,53.0000000000,245.0000000000,376.0000000000,699.0000000000
1717674994620,12.0000000000,20.0000000000,52.0000000000,243.0000000000,372.0000000000,692.0000000000
1717674994620,11.0000000000,20.0000000000,51.0000000000,241.0000000000,369.0000000000,684.0000000000
1717674994621,11.0000000000,20.0000000000,52.0000000000,240.0000000000,368.0000000000,677.0000000000
1717674994621,11.0000000000,20.0000000000,51.0000000000,238.0000000000,366.0000000000,669.0000000000
1717674994621,12.0000000000,19.0000000000,51.0000000000,236.0000000000,363.0000000000,719.0000000000
1717674994634,11.0000000000,20.0000000000,50.0000000000,236.0000000000,360.0000000000,711.0000000000
1717674994635,11.0000000000,19.0000000000,50.0000000000,233.0000000000,359.0000000000,704.0000000000
1717674994635,11.0000000000,19.0000000000,50.0000000000,231.0000000000,356.0000000000,696.0000000000
1717674994635,11.0000000000,19.0000000000,50.0000000000,230.0000000000,354.0000000000,687.0000000000
1717674994635,11.0000000000,19.0000000000,49.0000000000,228.0000000000,352.0000000000,681.0000000000
1717674994636,10.0000000000,19.0000000000,49.0000000000,227.0000000000,350.0000000000,673.0000000000
1717674994636,11.0000000000,19.0000000000,49.0000000000,313.0000000000,348.0000000000,665.0000000000
1717674994636,11.0000000000,19.0000000000,48.0000000000,310.0000000000,345.0000000000,658.0000000000
1717674994636,11.0000000000,19.0000000000,48.0000000000,308.0000000000,344.0000000000,652.0000000000
1717674994664,10.0000000000,18.0000000000,48.0000000000,305.0000000000,340.0000000000,646.0000000000
1717674994666,9.0000000000,18.0000000000,47.0000000000,303.0000000000,339.0000000000,639.0000000000
1717674994666,10.0000000000,18.0000000000,47.0000000000,301.0000000000,337.0000000000,633.0000000000
1717674994666,9.0000000000,18.0000000000,47.0000000000,299.0000000000,335.0000000000,721.0000000000
1717674994667,10.0000000000,25.0000000000,52.0000000000,295.0000000000,334.0000000000,844.0000000000
1717674994667,10.0000000000,41.0000000000,79.0000000000,294.0000000000,331.0000000000,831.0000000000
1717674994667,10.0000000000,41.0000000000,78.0000000000,292.0000000000,328.0000000000,824.0000000000
1717674994667,9.0000000000,40.0000000000,77.0000000000,290.0000000000,327.0000000000,812.0000000000
1717674994668,9.0000000000,41.0000000000,76.0000000000,287.0000000000,326.0000000000,801.0000000000
1717674994668,9.0000000000,40.0000000000,76.0000000000,286.0000000000,323.0000000000,793.0000000000
1717674994668,22.0000000000,39.0000000000,76.0000000000,284.0000000000,335.0000000000,783.0000000000
1717674994668,22.0000000000,39.0000000000,76.0000000000,282.0000000000,509.0000000000,774.0000000000
1717674994669,22.0000000000,39.0000000000,75.0000000000,280.0000000000,502.0000000000,767.0000000000
1717674994671,22.0000000000,39.0000000000,73.0000000000,279.0000000000,497.0000000000,758.0000000000
1717674994672,22.0000000000,39.0000000000,73.0000000000,319.0000000000,494.0000000000,896.0000000000
1717674994673,22.0000000000,39.0000000000,73.0000000000,316.0000000000,488.0000000000,888.0000000000
1717674994674,22.0000000000,38.0000000000,73.0000000000,313.0000000000,483.0000000000,878.0000000000
1717674994675,21.0000000000,38.0000000000,71.0000000000,311.0000000000,480.0000000000,865.0000000000
1717674994676,21.0000000000,38.0000000000,71.0000000000,308.0000000000,476.0000000000,853.0000000000
1717674994677,21.0000000000,37.0000000000,71.0000000000,306.0000000000,472.0000000000,908.0000000000
1717674994677,21.0000000000,37.0000000000,71.0000000000,304.0000000000,467.0000000000,913.0000000000
1717674994678,20.0000000000,37.0000000000,71.0000000000,302.0000000000,463.0000000000,918.0000000000
1717674994700,20.0000000000,36.0000000000,70.0000000000,300.0000000000,460.0000000000,918.0000000000
1717674994701,20.0000000000,36.0000000000,70.0000000000,297.0000000000,456.0000000000,907.0000000000
1717674994701,20.0000000000,36.0000000000,69.0000000000,295.0000000000,452.0000000000,889.0000000000
1717674994701,20.0000000000,35.0000000000,68.0000000000,293.0000000000,449.0000000000,877.0000000000
1717674994701,19.0000000000,35.0000000000,68.0000000000,291.0000000000,446.0000000000,865.0000000000
1717674994702,19.0000000000,35.0000000000,67.0000000000,289.0000000000,542.0000000000,854.0000000000
1717674994702,19.0000000000,35.0000000000,67.0000000000,287.0000000000,535.0000000000,842.0000000000
1717674994702,19.0000000000,35.0000000000,81.0000000000,286.0000000000,529.0000000000,833.0000000000
1717674994702,19.0000000000,35.0000000000,81.0000000000,283.0000000000,524.0000000000,823.0000000000
1717674994702,41.0000000000,35.0000000000,79.0000000000,281.0000000000,525.0000000000,813.0000000000
1717674994702,57.0000000000,34.0000000000,79.0000000000,279.0000000000,647.0000000000,802.0000000000
1717674994702,56.0000000000,34.0000000000,79.0000000000,278.0000000000,639.0000000000,795.0000000000
1717674994702,56.0000000000,33.0000000000,79.0000000000,275.0000000000,632.0000000000,785.0000000000
1717674994716,55.0000000000,33.0000000000,78.0000000000,273.0000000000,627.0000000000,775.0000000000
1717674994717,55.0000000000,33.0000000000,78.0000000000,271.0000000000,620.0000000000,768.0000000000
1717674994718,54.0000000000,33.0000000000,77.0000000000,270.0000000000,614.0000000000,760.0000000000
1717674994718,53.0000000000,33.0000000000,77.0000000000,268.0000000000,607.0000000000,751.0000000000
1717674994719,52.0000000000,32.0000000000,76.0000000000,267.0000000000,603.0000000000,742.0000000000
1717674994719,52.0000000000,31.0000000000,76.0000000000,264.0000000000,596.0000000000,734.0000000000
1717674994719,52.0000000000,31.0000000000,76.0000000000,263.0000000000,590.0000000000,728.0000000000
1717674994720,52.0000000000,32.0000000000,74.0000000000,262.0000000000,583.0000000000,719.0000000000
1717674994720,51.0000000000,31.0000000000,75.0000000000,260.0000000000,580.0000000000,843.0000000000
1717674994751,137.0000000000,31.0000000000,73.0000000000,258.0000000000,575.0000000000,907.0000000000
1717674994751,163.0000000000,31.0000000000,73.0000000000,255.0000000000,568.0000000000,911.0000000000
1717674994751,161.0000000000,31.0000000000,73.0000000000,254.0000000000,563.0000000000,899.0000000000
1717674994751,159.0000000000,31.0000000000,71.0000000000,252.0000000000,558.0000000000,883.0000000000
1717674994751,158.0000000000,31.0000000000,71.0000000000,251.0000000000,552.0000000000,870.0000000000
1717674994751,157.0000000000,31.0000000000,71.0000000000,249.0000000000,547.0000000000,861.0000000000
1717674994752,156.0000000000,30.0000000000,71.0000000000,248.0000000000,543.0000000000,849.0000000000
1717674994752,154.0000000000,30.0000000000,71.0000000000,246.0000000000,538.0000000000,838.0000000000
1717674994752,153.0000000000,30.0000000000,70.0000000000,244.0000000000,532.0000000000,827.0000000000
1717674994752,156.0000000000,30.0000000000,70.0000000000,243.0000000000,529.0000000000,817.0000000000
1717674994752,164.0000000000,29.0000000000,69.0000000000,298.0000000000,524.0000000000,806.0000000000
1717674994752,163.0000000000,29.0000000000,68.0000000000,295.0000000000,519.0000000000,796.0000000000
1717674994752,162.0000000000,29.0000000000,68.0000000000,293.0000000000,515.0000000000,787.0000000000
1717674994752,160.0000000000,29.0000000000,68.0000000000,291.0000000000,511.0000000000,871.0000000000
1717674994752,159.0000000000,29.0000000000,67.0000000000,310.0000000000,507.0000000000,859.0000000000
1717674994752,159.0000000000,28.0000000000,67.0000000000,373.0000000000,502.0000000000,847.0000000000
1717674994753,157.0000000000,28.0000000000,67.0000000000,369.0000000000,497.0000000000,835.0000000000
1717674994771,156.0000000000,28.0000000000,67.0000000000,366.0000000000,494.0000000000,824.0000000000
1717674994771,155.0000000000,28.0000000000,65.0000000000,363.0000000000,489.0000000000,813.0000000000
1717674994771,154.0000000000,28.0000000000,65.0000000000,359.0000000000,486.0000000000,804.0000000000
1717674994772,152.0000000000,28.0000000000,65.0000000000,357.0000000000,481.0000000000,795.0000000000
1717674994772,152.0000000000,27.0000000000,64.0000000000,354.0000000000,478.0000000000,783.0000000000
1717674994772,151.0000000000,27.0000000000,63.0000000000,352.0000000000,473.0000000000,775.0000000000
1717674994772,149.0000000000,27.0000000000,63.0000000000,348.0000000000,470.0000000000,766.0000000000
1717674994772,148.0000000000,27.0000000000,63.0000000000,346.0000000000,466.0000000000,756.0000000000
1717674994772,147.0000000000,27.0000000000,63.0000000000,344.0000000000,527.0000000000,748.0000000000
1717674994772,147.0000000000,27.0000000000,63.0000000000,340.0000000000,521.0000000000,739.0000000000
1717674994789,145.0000000000,26.0000000000,62.0000000000,337.0000000000,518.0000000000,820.0000000000
1717674994789,152.0000000000,26.0000000000,62.0000000000,335.0000000000,512.0000000000,876.0000000000
1717674994789,151.0000000000,26.0000000000,62.0000000000,332.0000000000,508.0000000000,863.0000000000
1717674994789,150.0000000000,26.0000000000,61.0000000000,330.0000000000,503.0000000000,851.0000000000
1717674994790,148.0000000000,25.0000000000,60.0000000000,327.0000000000,498.0000000000,839.0000000000
1717674994790,147.0000000000,25.0000000000,60.0000000000,326.0000000000,493.0000000000,828.0000000000
1717674994790,147.0000000000,25.0000000000,60.0000000000,323.0000000000,488.0000000000,816.0000000000
1717674994790,145.0000000000,24.0000000000,60.0000000000,321.0000000000,484.0000000000,809.0000000000
1717674994804,145.0000000000,25.0000000000,59.0000000000,414.0000000000,480.0000000000,799.0000000000
1717674994804,143.0000000000,24.0000000000,59.0000000000,422.0000000000,476.0000000000,788.0000000000
1717674994805,143.0000000000,24.0000000000,59.0000000000,417.0000000000,472.0000000000,779.0000000000
1717674994805,142.0000000000,24.0000000000,58.0000000000,413.0000000000,467.0000000000,769.0000000000
1717674994805,141.0000000000,24.0000000000,57.0000000000,438.0000000000,463.0000000000,760.0000000000
1717674994805,140.0000000000,24.0000000000,57.0000000000,434.0000000000,460.0000000000,750.0000000000
1717674994805,139.0000000000,24.0000000000,57.0000000000,430.0000000000,457.0000000000,742.0000000000
1717674994805,137.0000000000,24.0000000000,56.0000000000,425.0000000000,454.0000000000,732.0000000000
1717674994805,137.0000000000,24.0000000000,56.0000000000,422.0000000000,451.0000000000,724.0000000000
1717674994820,136.0000000000,24.0000000000,56.0000000000,418.0000000000,447.0000000000,716.0000000000
1717674994821,135.0000000000,23.0000000000,56.0000000000,415.0000000000,444.0000000000,709.0000000000
1717674994822,134.0000000000,23.0000000000,58.0000000000,412.0000000000,440.0000000000,700.0000000000
1717674994822,134.0000000000,23.0000000000,57.0000000000,408.0000000000,436.0000000000,693.0000000000
1717674994823,133.0000000000,23.0000000000,57.0000000000,405.0000000000,459.0000000000,687.0000000000
1717674994823,131.0000000000,23.0000000000,56.0000000000,401.0000000000,455.0000000000,739.0000000000
1717674994823,190.0000000000,23.0000000000,56.0000000000,399.0000000000,451.0000000000,748.0000000000
1717674994823,236.0000000000,23.0000000000,56.0000000000,395.0000000000,447.0000000000,738.0000000000
1717674994851,233.0000000000,22.0000000000,55.0000000000,391.0000000000,443.0000000000,729.0000000000
1717674994851,231.0000000000,22.0000000000,56.0000000000,389.0000000000,440.0000000000,719.0000000000
1717674994851,230.0000000000,22.0000000000,55.0000000000,385.0000000000,435.0000000000,711.0000000000
1717674994851,227.0000000000,22.0000000000,54.0000000000,384.0000000000,432.0000000000,703.0000000000
1717674994852,225.0000000000,22.0000000000,54.0000000000,380.0000000000,429.0000000000,695.0000000000
1717674994852,224.0000000000,21.0000000000,54.0000000000,376.0000000000,425.0000000000,687.0000000000
1717674994852,223.0000000000,21.0000000000,53.0000000000,374.0000000000,423.0000000000,679.0000000000
1717674994852,221.0000000000,22.0000000000,53.0000000000,371.0000000000,419.0000000000,671.0000000000
1717674994852,220.0000000000,21.0000000000,52.0000000000,368.0000000000,415.0000000000,664.0000000000
1717674994852,249.0000000000,21.0000000000,52.0000000000,365.0000000000,414.0000000000,658.0000000000
1717674994852,247.0000000000,20.0000000000,51.0000000000,363.0000000000,411.0000000000,653.0000000000
1717674994852,244.0000000000,20.0000000000,51.0000000000,359.0000000000,408.0000000000,647.0000000000
1717674994852,243.0000000000,20.0000000000,51.0000000000,358.0000000000,452.0000000000,639.0000000000
1717674994852,240.0000000000,20.0000000000,51.0000000000,355.0000000000,448.0000000000,634.0000000000
1717674994852,239.0000000000,23.0000000000,79.0000000000,352.0000000000,444.0000000000,670.0000000000
1717674994870,237.0000000000,22.0000000000,83.0000000000,350.0000000000,440.0000000000,661.0000000000
1717674994872,236.0000000000,22.0000000000,83.0000000000,348.0000000000,435.0000000000,653.0000000000
1717674994872,233.0000000000,22.0000000000,82.0000000000,344.0000000000,433.0000000000,646.0000000000
1717674994872,231.0000000000,22.0000000000,81.0000000000,342.0000000000,430.0000000000,639.0000000000
1717674994873,230.0000000000,22.0000000000,81.0000000000,339.0000000000,425.0000000000,632.0000000000
1717674994874,228.0000000000,21.0000000000,80.0000000000,337.0000000000,422.0000000000,625.0000000000
1717674994875,227.0000000000,22.0000000000,79.0000000000,335.0000000000,419.0000000000,620.0000000000
1717674994876,225.0000000000,20.0000000000,79.0000000000,332.0000000000,415.0000000000,614.0000000000
1717674994876,224.0000000000,20.0000000000,79.0000000000,331.0000000000,412.0000000000,804.0000000000
1717674994877,223.0000000000,33.0000000000,78.0000000000,327.0000000000,408.0000000000,835.0000000000
1717674994878,220.0000000000,36.0000000000,98.0000000000,326.0000000000,404.0000000000,823.0000000000
1717674994878,219.0000000000,36.0000000000,97.0000000000,323.0000000000,402.0000000000,812.0000000000
1717674994878,217.0000000000,35.0000000000,96.0000000000,321.0000000000,399.0000000000,800.0000000000
1717674994878,216.0000000000,35.0000000000,96.0000000000,319.0000000000,396.0000000000,790.0000000000
1717674994891,215.0000000000,35.0000000000,95.0000000000,317.0000000000,392.0000000000,780.0000000000
1717674994891,213.0000000000,35.0000000000,94.0000000000,315.0000000000,391.0000000000,771.0000000000
1717674994891,212.0000000000,35.0000000000,94.0000000000,312.0000000000,388.0000000000,760.0000000000
1717674994891,211.0000000000,35.0000000000,92.0000000000,311.0000000000,385.0000000000,751.0000000000
1717674994892,209.0000000000,34.0000000000,92.0000000000,308.0000000000,383.0000000000,743.0000000000
1717674994892,207.0000000000,34.0000000000,92.0000000000,307.0000000000,380.0000000000,734.0000000000
1717674994892,207.0000000000,34.0000000000,91.0000000000,304.0000000000,377.0000000000,725.0000000000
1717674994906,205.0000000000,33.0000000000,91.0000000000,302.0000000000,376.0000000000,716.0000000000
1717674994907,204.0000000000,33.0000000000,89.0000000000,300.0000000000,372.0000000000,708.0000000000
1717674994907,202.0000000000,33.0000000000,89.0000000000,298.0000000000,369.0000000000,702.0000000000
1717674994907,201.0000000000,33.0000000000,88.0000000000,296.0000000000,367.0000000000,695.0000000000
1717674994907,211.0000000000,32.0000000000,88.0000000000,295.0000000000,364.0000000000,687.0000000000
1717674994907,209.0000000000,32.0000000000,87.0000000000,292.0000000000,362.0000000000,679.0000000000
1717674994907,208.0000000000,31.0000000000,87.0000000000,291.0000000000,359.0000000000,671.0000000000
1717674994907,207.0000000000,31.0000000000,87.0000000000,289.0000000000,357.0000000000,664.0000000000
1717674994921,205.0000000000,31.0000000000,86.0000000000,287.0000000000,355.0000000000,657.0000000000
1717674994922,204.0000000000,31.0000000000,85.0000000000,285.0000000000,352.0000000000,651.0000000000
1717674994922,203.0000000000,31.0000000000,84.0000000000,283.0000000000,351.0000000000,643.0000000000
1717674994922,199.0000000000,31.0000000000,84.0000000000,281.0000000000,348.0000000000,764.0000000000
1717674994922,271.0000000000,31.0000000000,83.0000000000,280.0000000000,347.0000000000,852.0000000000
1717674994922,270.0000000000,31.0000000000,83.0000000000,278.0000000000,344.0000000000,839.0000000000
1717674994923,268.0000000000,30.0000000000,82.0000000000,275.0000000000,342.0000000000,828.0000000000
1717674994923,265.0000000000,30.0000000000,82.0000000000,274.0000000000,339.0000000000,817.0000000000
1717674994937,263.0000000000,30.0000000000,81.0000000000,271.0000000000,337.0000000000,806.0000000000
1717674994938,262.0000000000,29.0000000000,81.0000000000,271.0000000000,335.0000000000,799.0000000000
1717674994938,259.0000000000,30.0000000000,80.0000000000,270.0000000000,332.0000000000,788.0000000000
1717674994938,257.0000000000,29.0000000000,79.0000000000,268.0000000000,331.0000000000,778.0000000000
1717674994938,255.0000000000,29.0000000000,79.0000000000,265.0000000000,327.0000000000,768.0000000000
1717674994938,253.0000000000,29.0000000000,79.0000000000,263.0000000000,327.0000000000,759.0000000000
1717674994939,252.0000000000,28.0000000000,78.0000000000,263.0000000000,324.0000000000,750.0000000000
1717674994939,250.0000000000,28.0000000000,78.0000000000,260.0000000000,323.0000000000,740.0000000000
1717674994939,248.0000000000,28.0000000000,77.0000000000,259.0000000000,321.0000000000,732.0000000000
1717674994955,246.0000000000,28.0000000000,77.0000000000,257.0000000000,319.0000000000,723.0000000000
1717674994956,244.0000000000,28.0000000000,76.0000000000,255.0000000000,318.0000000000,715.0000000000
1717674994956,243.0000000000,28.0000000000,76.0000000000,255.0000000000,316.0000000000,707.0000000000
1717674994956,241.0000000000,27.0000000000,76.0000000000,253.0000000000,313.0000000000,700.0000000000
1717674994957,240.0000000000,27.0000000000,75.0000000000,252.0000000000,312.0000000000,691.0000000000
1717674994957,238.0000000000,27.0000000000,75.0000000000,249.0000000000,310.0000000000,684.0000000000
1717674994957,236.0000000000,26.0000000000,74.0000000000,248.0000000000,307.0000000000,678.0000000000
1717674994957,235.0000000000,27.0000000000,74.0000000000,248.0000000000,305.0000000000,671.0000000000
1717674994972,233.0000000000,27.0000000000,73.0000000000,246.0000000000,304.0000000000,779.0000000000
1717674994972,324.0000000000,26.0000000000,73.0000000000,243.0000000000,302.0000000000,899.0000000000
1717674994972,319.0000000000,26.0000000000,72.0000000000,242.0000000000,300.0000000000,886.0000000000
1717674994972,317.0000000000,25.0000000000,71.0000000000,241.0000000000,299.0000000000,871.0000000000
1717674994973,314.0000000000,25.0000000000,71.0000000000,240.0000000000,295.0000000000,860.0000000000
1717674994973,312.0000000000,25.0000000000,71.0000000000,238.0000000000,371.0000000000,847.0000000000
1717674994973,309.0000000000,25.0000000000,71.0000000000,236.0000000000,368.0000000000,837.0000000000
1717674994973,307.0000000000,25.0000000000,70.0000000000,236.0000000000,441.0000000000,825.0000000000
1717674994973,304.0000000000,25.0000000000,70.0000000000,233.0000000000,437.0000000000,815.0000000000
1717674994993,302.0000000000,24.0000000000,70.0000000000,231.0000000000,432.0000000000,804.0000000000
1717674994995,300.0000000000,24.0000000000,68.0000000000,231.0000000000,428.0000000000,794.0000000000
1717674994996,297.0000000000,24.0000000000,68.0000000000,230.0000000000,425.0000000000,784.0000000000
1717674994997,295.0000000000,24.0000000000,67.0000000000,228.0000000000,421.0000000000,776.0000000000
1717674994998,293.0000000000,24.0000000000,67.0000000000,227.0000000000,417.0000000000,768.0000000000
1717674994999,291.0000000000,24.0000000000,67.0000000000,226.0000000000,414.0000000000,759.0000000000
1717674995000,288.0000000000,24.0000000000,67.0000000000,224.0000000000,411.0000000000,749.0000000000
1717674995001,287.0000000000,24.0000000000,67.0000000000,224.0000000000,408.0000000000,741.0000000000
1717674995001,284.0000000000,24.0000000000,65.0000000000,222.0000000000,403.0000000000,732.0000000000
1717674995003,283.0000000000,24.0000000000,65.0000000000,220.0000000000,400.0000000000,723.0000000000
1717674995003,280.0000000000,23.0000000000,65.0000000000,219.0000000000,398.0000000000,715.0000000000
1717674995004,278.0000000000,23.0000000000,65.0000000000,217.0000000000,395.0000000000,707.0000000000
1717674995005,276.0000000000,23.0000000000,63.0000000000,216.0000000000,391.0000000000,699.0000000000
1717674995005,275.0000000000,23.0000000000,63.0000000000,216.0000000000,389.0000000000,821.0000000000
1717674995006,273.0000000000,23.0000000000,63.0000000000,214.0000000000,385.0000000000,838.0000000000
1717674995007,271.0000000000,23.0000000000,63.0000000000,212.0000000000,383.0000000000,827.0000000000
1717674995045,269.0000000000,23.0000000000,63.0000000000,211.0000000000,380.0000000000,815.0000000000
1717674995048,267.0000000000,22.0000000000,62.0000000000,210.0000000000,376.0000000000,807.0000000000
1717674995048,264.0000000000,22.0000000000,62.0000000000,209.0000000000,374.0000000000,796.0000000000
1717674995049,263.0000000000,22.0000000000,62.0000000000,242.0000000000,446.0000000000,785.0000000000
1717674995050,262.0000000000,21.0000000000,61.0000000000,240.0000000000,441.0000000000,779.0000000000
1717674995050,259.0000000000,22.0000000000,61.0000000000,238.0000000000,438.0000000000,883.0000000000
1717674995051,376.0000000000,21.0000000000,60.0000000000,236.0000000000,433.0000000000,868.0000000000
1717674995052,371.0000000000,21.0000000000,60.0000000000,235.0000000000,430.0000000000,856.0000000000
1717674995052,368.0000000000,21.0000000000,60.0000000000,231.0000000000,425.0000000000,844.0000000000
1717674995053,364.0000000000,21.0000000000,60.0000000000,231.0000000000,423.0000000000,833.0000000000
1717674995053,361.0000000000,21.0000000000,60.0000000000,228.0000000000,419.0000000000,822.0000000000
1717674995054,359.0000000000,20.0000000000,59.0000000000,227.0000000000,415.0000000000,811.0000000000
1717674995054,355.0000000000,20.0000000000,59.0000000000,225.0000000000,412.0000000000,800.0000000000
1717674995054,353.0000000000,20.0000000000,58.0000000000,224.0000000000,408.0000000000,791.0000000000
1717674995054,350.0000000000,20.0000000000,57.0000000000,223.0000000000,405.0000000000,781.0000000000
1717674995055,347.0000000000,20.0000000000,57.0000000000,221.0000000000,402.0000000000,774.0000000000
1717674995055,344.0000000000,20.0000000000,57.0000000000,220.0000000000,399.0000000000,764.0000000000
1717674995055,342.0000000000,19.0000000000,56.0000000000,218.0000000000,396.0000000000,755.0000000000
1717674995055,339.0000000000,19.0000000000,56.0000000000,216.0000000000,391.0000000000,746.0000000000
1717674995056,336.0000000000,19.0000000000,56.0000000000,216.0000000000,390.0000000000,738.0000000000
1717674995056,334.0000000000,19.0000000000,56.0000000000,214.0000000000,386.0000000000,860.0000000000
1717674995057,332.0000000000,19.0000000000,56.0000000000,212.0000000000,384.0000000000,847.0000000000
1717674995057,328.0000000000,19.0000000000,55.0000000000,211.0000000000,380.0000000000,835.0000000000
1717674995057,327.0000000000,19.0000000000,55.0000000000,209.0000000000,377.0000000000,824.0000000000
1717674995057,323.0000000000,19.0000000000,55.0000000000,207.0000000000,376.0000000000,812.0000000000
1717674995058,321.0000000000,19.0000000000,54.0000000000,207.0000000000,372.0000000000,802.0000000000
1717674995058,319.0000000000,19.0000000000,54.0000000000,206.0000000000,369.0000000000,792.0000000000
1717674995059,332.0000000000,19.0000000000,54.0000000000,204.0000000000,367.0000000000,782.0000000000
1717674995092,329.0000000000,19.0000000000,53.0000000000,203.0000000000,364.0000000000,772.0000000000
1717674995093,327.0000000000,18.0000000000,52.0000000000,201.0000000000,361.0000000000,763.0000000000
1717674995093,324.0000000000,18.0000000000,52.0000000000,201.0000000000,359.0000000000,756.0000000000
1717674995094,321.0000000000,18.0000000000,51.0000000000,199.0000000000,355.0000000000,747.0000000000
1717674995094,319.0000000000,17.0000000000,51.0000000000,199.0000000000,353.0000000000,738.0000000000
1717674995094,317.0000000000,18.0000000000,51.0000000000,198.0000000000,423.0000000000,729.0000000000
1717674995094,315.0000000000,17.0000000000,51.0000000000,195.0000000000,419.0000000000,721.0000000000
1717674995094,312.0000000000,17.0000000000,51.0000000000,195.0000000000,415.0000000000,711.0000000000
1717674995094,310.0000000000,17.0000000000,50.0000000000,193.0000000000,412.0000000000,704.0000000000
1717674995095,307.0000000000,17.0000000000,50.0000000000,193.0000000000,409.0000000000,696.0000000000
1717674995095,305.0000000000,17.0000000000,50.0000000000,192.0000000000,406.0000000000,689.0000000000
1717674995095,304.0000000000,17.0000000000,49.0000000000,191.0000000000,402.0000000000,681.0000000000
1717674995095,302.0000000000,17.0000000000,49.0000000000,190.0000000000,399.0000000000,675.0000000000
1717674995095,300.0000000000,17.0000000000,48.0000000000,188.0000000000,396.0000000000,668.0000000000
1717674995095,297.0000000000,17.0000000000,48.0000000000,188.0000000000,391.0000000000,660.0000000000
1717674995096,295.0000000000,16.0000000000,49.0000000000,187.0000000000,389.0000000000,654.0000000000
1717674995096,292.0000000000,16.0000000000,48.0000000000,185.0000000000,386.0000000000,647.0000000000
1717674995096,291.0000000000,16.0000000000,48.0000000000,184.0000000000,383.0000000000,642.0000000000
1717674995109,288.0000000000,15.0000000000,48.0000000000,184.0000000000,380.0000000000,675.0000000000
1717674995110,294.0000000000,16.0000000000,47.0000000000,183.0000000000,376.0000000000,736.0000000000
1717674995110,292.0000000000,15.0000000000,47.0000000000,182.0000000000,374.0000000000,728.0000000000
1717674995110,290.0000000000,15.0000000000,47.0000000000,180.0000000000,371.0000000000,718.0000000000
1717674995110,287.0000000000,15.0000000000,46.0000000000,179.0000000000,368.0000000000,710.0000000000
1717674995110,286.0000000000,15.0000000000,46.0000000000,178.0000000000,366.0000000000,700.0000000000
1717674995110,284.0000000000,15.0000000000,46.0000000000,177.0000000000,363.0000000000,824.0000000000
1717674995125,281.0000000000,17.0000000000,49.0000000000,176.0000000000,359.0000000000,812.0000000000
1717674995126,280.0000000000,17.0000000000,49.0000000000,176.0000000000,358.0000000000,800.0000000000
1717674995127,278.0000000000,17.0000000000,48.0000000000,175.0000000000,355.0000000000,791.0000000000
1717674995127,275.0000000000,16.0000000000,48.0000000000,173.0000000000,352.0000000000,780.0000000000
1717674995127,274.0000000000,16.0000000000,48.0000000000,172.0000000000,398.0000000000,770.0000000000
1717674995127,271.0000000000,16.0000000000,48.0000000000,172.0000000000,394.0000000000,763.0000000000
1717674995128,271.0000000000,16.0000000000,47.0000000000,171.0000000000,391.0000000000,753.0000000000
1717674995128,269.0000000000,15.0000000000,47.0000000000,169.0000000000,387.0000000000,743.0000000000
1717674995130,267.0000000000,15.0000000000,47.0000000000,168.0000000000,384.0000000000,736.0000000000
1717674995130,265.0000000000,15.0000000000,46.0000000000,167.0000000000,380.0000000000,727.0000000000
1717674995158,263.0000000000,15.0000000000,46.0000000000,167.0000000000,377.0000000000,816.0000000000
1717674995158,262.0000000000,15.0000000000,46.0000000000,166.0000000000,375.0000000000,804.0000000000
1717674995158,259.0000000000,15.0000000000,46.0000000000,165.0000000000,372.0000000000,793.0000000000
1717674995159,259.0000000000,15.0000000000,45.0000000000,163.0000000000,369.0000000000,783.0000000000
1717674995159,257.0000000000,15.0000000000,45.0000000000,163.0000000000,366.0000000000,773.0000000000
1717674995159,255.0000000000,15.0000000000,44.0000000000,162.0000000000,364.0000000000,764.0000000000
1717674995159,254.0000000000,15.0000000000,45.0000000000,161.0000000000,359.0000000000,753.0000000000
1717674995159,252.0000000000,15.0000000000,44.0000000000,160.0000000000,358.0000000000,745.0000000000
1717674995159,251.0000000000,14.0000000000,44.0000000000,159.0000000000,355.0000000000,736.0000000000
1717674995159,248.0000000000,14.0000000000,44.0000000000,159.0000000000,352.0000000000,729.0000000000
1717674995159,248.0000000000,15.0000000000,44.0000000000,158.0000000000,350.0000000000,720.0000000000
1717674995159,246.0000000000,14.0000000000,43.0000000000,157.0000000000,347.0000000000,711.0000000000
1717674995159,244.0000000000,14.0000000000,43.0000000000,156.0000000000,344.0000000000,704.0000000000
1717674995159,243.0000000000,15.0000000000,43.0000000000,155.0000000000,342.0000000000,696.0000000000
1717674995160,241.0000000000,14.0000000000,43.0000000000,155.0000000000,339.0000000000,688.0000000000
1717674995174,240.0000000000,14.0000000000,42.0000000000,153.0000000000,337.0000000000,680.0000000000
1717674995176,238.0000000000,14.0000000000,42.0000000000,153.0000000000,335.0000000000,673.0000000000
1717674995176,237.0000000000,14.0000000000,41.0000000000,152.0000000000,333.0000000000,665.0000000000
1717674995176,236.0000000000,14.0000000000,41.0000000000,151.0000000000,331.0000000000,659.0000000000
1717674995177,233.0000000000,13.0000000000,40.0000000000,151.0000000000,327.0000000000,652.0000000000
1717674995177,232.0000000000,22.0000000000,51.0000000000,150.0000000000,327.0000000000,751.0000000000
1717674995177,231.0000000000,22.0000000000,50.0000000000,148.0000000000,324.0000000000,740.0000000000
1717674995178,230.0000000000,22.0000000000,50.0000000000,147.0000000000,322.0000000000,731.0000000000
1717674995179,227.0000000000,22.0000000000,49.0000000000,176.0000000000,319.0000000000,722.0000000000
1717674995179,227.0000000000,22.0000000000,49.0000000000,236.0000000000,317.0000000000,715.0000000000
1717674995206,227.0000000000,22.0000000000,48.0000000000,233.0000000000,315.0000000000,856.0000000000
1717674995206,288.0000000000,21.0000000000,48.0000000000,231.0000000000,313.0000000000,873.0000000000
1717674995207,284.0000000000,21.0000000000,48.0000000000,230.0000000000,335.0000000000,860.0000000000
1717674995207,283.0000000000,20.0000000000,47.0000000000,227.0000000000,428.0000000000,848.0000000000
1717674995207,280.0000000000,20.0000000000,47.0000000000,226.0000000000,423.0000000000,837.0000000000
1717674995207,278.0000000000,20.0000000000,47.0000000000,224.0000000000,419.0000000000,825.0000000000
1717674995207,275.0000000000,19.0000000000,47.0000000000,223.0000000000,415.0000000000,815.0000000000
1717674995207,273.0000000000,19.0000000000,47.0000000000,220.0000000000,412.0000000000,803.0000000000
1717674995207,271.0000000000,19.0000000000,46.0000000000,220.0000000000,409.0000000000,793.0000000000
1717674995207,270.0000000000,19.0000000000,46.0000000000,218.0000000000,406.0000000000,783.0000000000
1717674995207,268.0000000000,19.0000000000,45.0000000000,216.0000000000,402.0000000000,774.0000000000
1717674995207,265.0000000000,19.0000000000,45.0000000000,216.0000000000,399.0000000000,764.0000000000
1717674995207,263.0000000000,19.0000000000,44.0000000000,214.0000000000,396.0000000000,755.0000000000
1717674995208,262.0000000000,19.0000000000,44.0000000000,212.0000000000,391.0000000000,748.0000000000
1717674995208,259.0000000000,19.0000000000,44.0000000000,211.0000000000,388.0000000000,739.0000000000
1717674995226,258.0000000000,19.0000000000,44.0000000000,209.0000000000,385.0000000000,891.0000000000
1717674995227,255.0000000000,19.0000000000,44.0000000000,207.0000000000,384.0000000000,900.0000000000
1717674995227,254.0000000000,19.0000000000,44.0000000000,206.0000000000,380.0000000000,885.0000000000
1717674995228,252.0000000000,19.0000000000,44.0000000000,204.0000000000,377.0000000000,871.0000000000
1717674995228,251.0000000000,18.0000000000,44.0000000000,204.0000000000,374.0000000000,860.0000000000
1717674995228,249.0000000000,19.0000000000,43.0000000000,201.0000000000,371.0000000000,847.0000000000
1717674995229,248.0000000000,19.0000000000,43.0000000000,199.0000000000,369.0000000000,836.0000000000
1717674995229,245.0000000000,18.0000000000,43.0000000000,199.0000000000,366.0000000000,825.0000000000
1717674995229,243.0000000000,18.0000000000,42.0000000000,198.0000000000,363.0000000000,815.0000000000
1717674995230,242.0000000000,18.0000000000,41.0000000000,196.0000000000,359.0000000000,804.0000000000
1717674995230,240.0000000000,18.0000000000,41.0000000000,195.0000000000,358.0000000000,795.0000000000
1717674995230,239.0000000000,18.0000000000,41.0000000000,194.0000000000,355.0000000000,785.0000000000
1717674995263,238.0000000000,17.0000000000,41.0000000000,193.0000000000,352.0000000000,776.0000000000
1717674995264,236.0000000000,17.0000000000,41.0000000000,192.0000000000,350.0000000000,768.0000000000
1717674995264,234.0000000000,17.0000000000,39.0000000000,191.0000000000,348.0000000000,759.0000000000
1717674995264,231.0000000000,17.0000000000,40.0000000000,189.0000000000,345.0000000000,750.0000000000
1717674995264,231.0000000000,17.0000000000,39.0000000000,271.0000000000,343.0000000000,740.0000000000
1717674995265,230.0000000000,17.0000000000,39.0000000000,268.0000000000,339.0000000000,732.0000000000
1717674995265,228.0000000000,17.0000000000,39.0000000000,265.0000000000,337.0000000000,723.0000000000
1717674995265,226.0000000000,16.0000000000,39.0000000000,263.0000000000,335.0000000000,716.0000000000
1717674995265,225.0000000000,16.0000000000,39.0000000000,261.0000000000,333.0000000000,707.0000000000
1717674995265,224.0000000000,16.0000000000,51.0000000000,259.0000000000,331.0000000000,768.0000000000
1717674995265,222.0000000000,16.0000000000,51.0000000000,255.0000000000,327.0000000000,787.0000000000
1717674995265,221.0000000000,15.0000000000,51.0000000000,255.0000000000,326.0000000000,775.0000000000
1717674995266,220.0000000000,15.0000000000,51.0000000000,253.0000000000,323.0000000000,766.0000000000
1717674995266,219.0000000000,16.0000000000,50.0000000000,251.0000000000,321.0000000000,756.0000000000
1717674995266,217.0000000000,15.0000000000,50.0000000000,249.0000000000,319.0000000000,748.0000000000
1717674995266,216.0000000000,15.0000000000,50.0000000000,248.0000000000,318.0000000000,739.0000000000
1717674995266,215.0000000000,15.0000000000,49.0000000000,246.0000000000,315.0000000000,731.0000000000
1717674995283,212.0000000000,15.0000000000,49.0000000000,244.0000000000,313.0000000000,722.0000000000
1717674995284,211.0000000000,15.0000000000,48.0000000000,243.0000000000,311.0000000000,714.0000000000
1717674995284,211.0000000000,15.0000000000,48.0000000000,262.0000000000,308.0000000000,705.0000000000
1717674995284,209.0000000000,15.0000000000,48.0000000000,259.0000000000,307.0000000000,697.0000000000
1717674995284,207.0000000000,15.0000000000,47.0000000000,255.0000000000,305.0000000000,689.0000000000
1717674995284,207.0000000000,15.0000000000,47.0000000000,255.0000000000,303.0000000000,681.0000000000
1717674995284,206.0000000000,15.0000000000,47.0000000000,252.0000000000,301.0000000000,675.0000000000
1717674995285,204.0000000000,15.0000000000,47.0000000000,251.0000000000,299.0000000000,668.0000000000
1717674995285,207.0000000000,15.0000000000,46.0000000000,249.0000000000,297.0000000000,660.0000000000
1717674995285,206.0000000000,14.0000000000,46.0000000000,248.0000000000,295.0000000000,654.0000000000
1717674995285,204.0000000000,15.0000000000,46.0000000000,246.0000000000,293.0000000000,647.0000000000
1717674995302,204.0000000000,14.0000000000,46.0000000000,243.0000000000,291.0000000000,642.0000000000
1717674995302,201.0000000000,14.0000000000,45.0000000000,243.0000000000,290.0000000000,636.0000000000
1717674995302,200.0000000000,14.0000000000,45.0000000000,240.0000000000,287.0000000000,629.0000000000
1717674995303,199.0000000000,14.0000000000,45.0000000000,239.0000000000,286.0000000000,623.0000000000
1717674995303,198.0000000000,14.0000000000,44.0000000000,237.0000000000,284.0000000000,616.0000000000
1717674995303,197.0000000000,14.0000000000,44.0000000000,236.0000000000,283.0000000000,611.0000000000
1717674995303,195.0000000000,14.0000000000,44.0000000000,234.0000000000,281.0000000000,605.0000000000
1717674995303,207.0000000000,13.0000000000,43.0000000000,231.0000000000,280.0000000000,600.0000000000
1717674995319,207.0000000000,14.0000000000,44.0000000000,231.0000000000,278.0000000000,593.0000000000
1717674995320,205.0000000000,13.0000000000,43.0000000000,229.0000000000,276.0000000000,588.0000000000
1717674995321,204.0000000000,13.0000000000,42.0000000000,227.0000000000,275.0000000000,583.0000000000
1717674995321,202.0000000000,12.0000000000,43.0000000000,226.0000000000,273.0000000000,577.0000000000
1717674995321,199.0000000000,13.0000000000,41.0000000000,224.0000000000,271.0000000000,572.0000000000
1717674995321,199.0000000000,12.0000000000,51.0000000000,223.0000000000,270.0000000000,568.0000000000
1717674995322,198.0000000000,13.0000000000,50.0000000000,221.0000000000,268.0000000000,562.0000000000
1717674995322,196.0000000000,12.0000000000,50.0000000000,220.0000000000,267.0000000000,558.0000000000
1717674995322,195.0000000000,13.0000000000,49.0000000000,220.0000000000,265.0000000000,553.0000000000
1717674995323,195.0000000000,12.0000000000,49.0000000000,218.0000000000,263.0000000000,548.0000000000
1717674995323,193.0000000000,12.0000000000,49.0000000000,216.0000000000,263.0000000000,543.0000000000
1717674995349,192.0000000000,12.0000000000,48.0000000000,215.0000000000,260.0000000000,539.0000000000
1717674995350,191.0000000000,12.0000000000,48.0000000000,214.0000000000,259.0000000000,535.0000000000
1717674995350,190.0000000000,12.0000000000,48.0000000000,211.0000000000,257.0000000000,530.0000000000
1717674995351,189.0000000000,29.0000000000,48.0000000000,211.0000000000,257.0000000000,526.0000000000
1717674995351,188.0000000000,32.0000000000,47.0000000000,209.0000000000,255.0000000000,521.0000000000
1717674995351,187.0000000000,31.0000000000,46.0000000000,207.0000000000,254.0000000000,516.0000000000
1717674995351,185.0000000000,31.0000000000,46.0000000000,207.0000000000,252.0000000000,512.0000000000
1717674995352,184.0000000000,31.0000000000,46.0000000000,206.0000000000,251.0000000000,508.0000000000
1717674995352,201.0000000000,31.0000000000,46.0000000000,204.0000000000,249.0000000000,504.0000000000
1717674995352,199.0000000000,31.0000000000,46.0000000000,203.0000000000,305.0000000000,500.0000000000
1717674995352,198.0000000000,30.0000000000,46.0000000000,201.0000000000,302.0000000000,497.0000000000
1717674995352,197.0000000000,30.0000000000,45.0000000000,199.0000000000,299.0000000000,493.0000000000
1717674995353,195.0000000000,30.0000000000,45.0000000000,199.0000000000,297.0000000000,606.0000000000
1717674995353,194.0000000000,31.0000000000,44.0000000000,198.0000000000,295.0000000000,659.0000000000
1717674995353,193.0000000000,114.0000000000,44.0000000000,196.0000000000,292.0000000000,651.0000000000
1717674995353,192.0000000000,114.0000000000,44.0000000000,195.0000000000,289.0000000000,643.0000000000
1717674995375,190.0000000000,113.0000000000,44.0000000000,193.0000000000,287.0000000000,633.0000000000
1717674995378,188.0000000000,112.0000000000,43.0000000000,192.0000000000,286.0000000000,627.0000000000
1717674995379,187.0000000000,111.0000000000,43.0000000000,192.0000000000,284.0000000000,620.0000000000
1717674995380,185.0000000000,110.0000000000,43.0000000000,190.0000000000,281.0000000000,614.0000000000
1717674995382,184.0000000000,109.0000000000,42.0000000000,189.0000000000,280.0000000000,607.0000000000
1717674995383,184.0000000000,108.0000000000,41.0000000000,209.0000000000,277.0000000000,601.0000000000
1717674995384,182.0000000000,108.0000000000,41.0000000000,255.0000000000,275.0000000000,595.0000000000
1717674995384,181.0000000000,107.0000000000,41.0000000000,253.0000000000,273.0000000000,588.0000000000
1717674995386,179.0000000000,105.0000000000,41.0000000000,251.0000000000,271.0000000000,583.0000000000
1717674995386,179.0000000000,105.0000000000,40.0000000000,248.0000000000,269.0000000000,577.0000000000
1717674995387,177.0000000000,103.0000000000,39.0000000000,247.0000000000,267.0000000000,569.0000000000
1717674995387,176.0000000000,103.0000000000,39.0000000000,244.0000000000,265.0000000000,563.0000000000
1717674995388,176.0000000000,103.0000000000,39.0000000000,243.0000000000,263.0000000000,559.0000000000
1717674995388,175.0000000000,103.0000000000,39.0000000000,240.0000000000,262.0000000000,553.0000000000
1717674995388,174.0000000000,102.0000000000,39.0000000000,239.0000000000,259.0000000000,547.0000000000
1717674995388,172.0000000000,100.0000000000,39.0000000000,238.0000000000,257.0000000000,543.0000000000
1717674995460,172.0000000000,100.0000000000,39.0000000000,236.0000000000,255.0000000000,537.0000000000
1717674995461,171.0000000000,99.0000000000,39.0000000000,233.0000000000,254.0000000000,532.0000000000
1717674995461,169.0000000000,99.0000000000,38.0000000000,231.0000000000,252.0000000000,527.0000000000
1717674995461,168.0000000000,98.0000000000,38.0000000000,231.0000000000,252.0000000000,523.0000000000
1717674995461,167.0000000000,97.0000000000,38.0000000000,228.0000000000,249.0000000000,518.0000000000
1717674995461,204.0000000000,97.0000000000,37.0000000000,227.0000000000,248.0000000000,579.0000000000
1717674995461,295.0000000000,96.0000000000,38.0000000000,225.0000000000,247.0000000000,571.0000000000
1717674995461,291.0000000000,96.0000000000,37.0000000000,224.0000000000,246.0000000000,564.0000000000
1717674995461,288.0000000000,95.0000000000,37.0000000000,223.0000000000,243.0000000000,559.0000000000
1717674995462,286.0000000000,94.0000000000,36.0000000000,221.0000000000,243.0000000000,553.0000000000
1717674995462,284.0000000000,94.0000000000,36.0000000000,220.0000000000,241.0000000000,548.0000000000
1717674995462,281.0000000000,93.0000000000,36.0000000000,219.0000000000,240.0000000000,543.0000000000
1717674995462,280.0000000000,92.0000000000,36.0000000000,217.0000000000,239.0000000000,538.0000000000
1717674995462,278.0000000000,92.0000000000,36.0000000000,216.0000000000,237.0000000000,532.0000000000
1717674995462,275.0000000000,91.0000000000,35.0000000000,214.0000000000,236.0000000000,527.0000000000
1717674995462,273.0000000000,91.0000000000,35.0000000000,212.0000000000,235.0000000000,522.0000000000
1717674995462,271.0000000000,89.0000000000,35.0000000000,211.0000000000,275.0000000000,518.0000000000
1717674995462,269.0000000000,89.0000000000,35.0000000000,209.0000000000,273.0000000000,512.0000000000
1717674995462,267.0000000000,88.0000000000,35.0000000000,207.0000000000,271.0000000000,508.0000000000
1717674995462,265.0000000000,88.0000000000,35.0000000000,207.0000000000,269.0000000000,504.0000000000
1717674995463,263.0000000000,88.0000000000,35.0000000000,206.0000000000,268.0000000000,499.0000000000
1717674995463,262.0000000000,88.0000000000,33.0000000000,204.0000000000,265.0000000000,495.0000000000
1717674995463,259.0000000000,87.0000000000,34.0000000000,203.0000000000,263.0000000000,491.0000000000
1717674995463,258.0000000000,86.0000000000,34.0000000000,201.0000000000,262.0000000000,487.0000000000
1717674995463,255.0000000000,86.0000000000,34.0000000000,199.0000000000,259.0000000000,483.0000000000
1717674995463,255.0000000000,85.0000000000,33.0000000000,199.0000000000,257.0000000000,480.0000000000
1717674995463,253.0000000000,84.0000000000,33.0000000000,198.0000000000,255.0000000000,476.0000000000
1717674995463,251.0000000000,84.0000000000,33.0000000000,196.0000000000,254.0000000000,472.0000000000
1717674995463,249.0000000000,83.0000000000,32.0000000000,195.0000000000,291.0000000000,468.0000000000
1717674995464,248.0000000000,129.0000000000,33.0000000000,193.0000000000,288.0000000000,465.0000000000
1717674995464,246.0000000000,135.0000000000,32.0000000000,193.0000000000,287.0000000000,462.0000000000
1717674995464,244.0000000000,135.0000000000,32.0000000000,191.0000000000,284.0000000000,458.0000000000
1717674995464,242.0000000000,134.0000000000,32.0000000000,190.0000000000,283.0000000000,454.0000000000
1717674995464,241.0000000000,133.0000000000,32.0000000000,188.0000000000,280.0000000000,451.0000000000
1717674995464,239.0000000000,131.0000000000,32.0000000000,292.0000000000,278.0000000000,447.0000000000
1717674995464,237.0000000000,130.0000000000,31.0000000000,287.0000000000,276.0000000000,444.0000000000
1717674995464,236.0000000000,129.0000000000,31.0000000000,285.0000000000,274.0000000000,440.0000000000
1717674995464,234.0000000000,129.0000000000,31.0000000000,283.0000000000,271.0000000000,437.0000000000
1717674995464,231.0000000000,127.0000000000,31.0000000000,280.0000000000,269.0000000000,433.0000000000
1717674995486,231.0000000000,127.0000000000,31.0000000000,279.0000000000,268.0000000000,431.0000000000
1717674995487,229.0000000000,126.0000000000,31.0000000000,276.0000000000,265.0000000000,428.0000000000
1717674995488,227.0000000000,125.0000000000,31.0000000000,273.0000000000,263.0000000000,423.0000000000
1717674995488,226.0000000000,124.0000000000,31.0000000000,271.0000000000,262.0000000000,420.0000000000
1717674995488,224.0000000000,123.0000000000,31.0000000000,270.0000000000,259.0000000000,417.0000000000
1717674995489,223.0000000000,122.0000000000,30.0000000000,268.0000000000,258.0000000000,601.0000000000
1717674995489,238.0000000000,121.0000000000,30.0000000000,265.0000000000,255.0000000000,625.0000000000
1717674995489,236.0000000000,120.0000000000,29.0000000000,263.0000000000,254.0000000000,617.0000000000
1717674995489,233.0000000000,120.0000000000,30.0000000000,262.0000000000,252.0000000000,610.0000000000
1717674995490,231.0000000000,119.0000000000,30.0000000000,259.0000000000,251.0000000000,604.0000000000
1717674995490,230.0000000000,118.0000000000,30.0000000000,257.0000000000,248.0000000000,598.0000000000
1717674995490,228.0000000000,117.0000000000,29.0000000000,255.0000000000,247.0000000000,591.0000000000
1717674995490,227.0000000000,116.0000000000,29.0000000000,254.0000000000,245.0000000000,584.0000000000
1717674995514,224.0000000000,115.0000000000,29.0000000000,252.0000000000,243.0000000000,577.0000000000
1717674995515,223.0000000000,115.0000000000,28.0000000000,251.0000000000,242.0000000000,572.0000000000
1717674995515,222.0000000000,114.0000000000,28.0000000000,248.0000000000,240.0000000000,566.0000000000
1717674995515,220.0000000000,113.0000000000,28.0000000000,319.0000000000,239.0000000000,560.0000000000
1717674995515,218.0000000000,113.0000000000,28.0000000000,315.0000000000,237.0000000000,555.0000000000
1717674995515,216.0000000000,112.0000000000,28.0000000000,312.0000000000,235.0000000000,549.0000000000
1717674995515,215.0000000000,112.0000000000,28.0000000000,310.0000000000,234.0000000000,543.0000000000
1717674995516,214.0000000000,111.0000000000,28.0000000000,307.0000000000,231.0000000000,539.0000000000
1717674995516,212.0000000000,109.0000000000,27.0000000000,304.0000000000,231.0000000000,534.0000000000
1717674995516,211.0000000000,109.0000000000,27.0000000000,301.0000000000,230.0000000000,529.0000000000
1717674995516,209.0000000000,108.0000000000,27.0000000000,299.0000000000,228.0000000000,523.0000000000
1717674995516,207.0000000000,108.0000000000,51.0000000000,296.0000000000,227.0000000000,518.0000000000
1717674995517,207.0000000000,107.0000000000,50.0000000000,295.0000000000,226.0000000000,513.0000000000
1717674995517,206.0000000000,107.0000000000,50.0000000000,291.0000000000,224.0000000000,508.0000000000
1717674995583,204.0000000000,105.0000000000,50.0000000000,290.0000000000,223.0000000000,504.0000000000
1717674995585,203.0000000000,104.0000000000,49.0000000000,287.0000000000,222.0000000000,593.0000000000
1717674995585,201.0000000000,103.0000000000,49.0000000000,286.0000000000,220.0000000000,586.0000000000
1717674995586,199.0000000000,103.0000000000,48.0000000000,284.0000000000,220.0000000000,579.0000000000
1717674995586,199.0000000000,103.0000000000,48.0000000000,281.0000000000,218.0000000000,574.0000000000
1717674995586,198.0000000000,102.0000000000,48.0000000000,279.0000000000,216.0000000000,566.0000000000
1717674995587,196.0000000000,102.0000000000,48.0000000000,280.0000000000,331.0000000000,560.0000000000
1717674995587,195.0000000000,100.0000000000,48.0000000000,278.0000000000,327.0000000000,627.0000000000
1717674995587,225.0000000000,132.0000000000,47.0000000000,276.0000000000,323.0000000000,632.0000000000
1717674995588,290.0000000000,140.0000000000,47.0000000000,273.0000000000,319.0000000000,624.0000000000
1717674995588,287.0000000000,138.0000000000,46.0000000000,271.0000000000,317.0000000000,617.0000000000
1717674995588,284.0000000000,137.0000000000,46.0000000000,270.0000000000,315.0000000000,611.0000000000
1717674995589,281.0000000000,135.0000000000,46.0000000000,268.0000000000,312.0000000000,604.0000000000
1717674995589,280.0000000000,135.0000000000,46.0000000000,266.0000000000,310.0000000000,598.0000000000
1717674995590,278.0000000000,134.0000000000,46.0000000000,263.0000000000,423.0000000000,591.0000000000
1717674995591,275.0000000000,133.0000000000,45.0000000000,262.0000000000,417.0000000000,583.0000000000
1717674995591,272.0000000000,131.0000000000,44.0000000000,259.0000000000,412.0000000000,578.0000000000
1717674995592,271.0000000000,131.0000000000,44.0000000000,257.0000000000,409.0000000000,572.0000000000
1717674995592,268.0000000000,130.0000000000,44.0000000000,255.0000000000,413.0000000000,567.0000000000
1717674995593,266.0000000000,129.0000000000,43.0000000000,255.0000000000,409.0000000000,561.0000000000
1717674995594,263.0000000000,128.0000000000,43.0000000000,253.0000000000,404.0000000000,556.0000000000
1717674995596,263.0000000000,127.0000000000,43.0000000000,251.0000000000,401.0000000000,550.0000000000
1717674995596,260.0000000000,127.0000000000,43.0000000000,249.0000000000,398.0000000000,545.0000000000
1717674995597,259.0000000000,126.0000000000,43.0000000000,248.0000000000,395.0000000000,540.0000000000
1717674995598,255.0000000000,124.0000000000,42.0000000000,247.0000000000,436.0000000000,536.0000000000
1717674995599,255.0000000000,124.0000000000,42.0000000000,243.0000000000,432.0000000000,529.0000000000
1717674995599,252.0000000000,123.0000000000,42.0000000000,243.0000000000,428.0000000000,524.0000000000
1717674995599,251.0000000000,122.0000000000,41.0000000000,241.0000000000,423.0000000000,519.0000000000
1717674995600,249.0000000000,121.0000000000,41.0000000000,240.0000000000,420.0000000000,514.0000000000
1717674995600,248.0000000000,120.0000000000,41.0000000000,238.0000000000,417.0000000000,510.0000000000
1717674995600,246.0000000000,120.0000000000,41.0000000000,236.0000000000,412.0000000000,505.0000000000
1717674995601,243.0000000000,119.0000000000,39.0000000000,235.0000000000,409.0000000000,500.0000000000
1717674995603,242.0000000000,118.0000000000,39.0000000000,232.0000000000,406.0000000000,496.0000000000
1717674995603,240.0000000000,197.0000000000,39.0000000000,231.0000000000,403.0000000000,492.0000000000
1717674995604,239.0000000000,195.0000000000,39.0000000000,230.0000000000,399.0000000000,487.0000000000
1717674995604,237.0000000000,193.0000000000,39.0000000000,228.0000000000,396.0000000000,483.0000000000
1717674995605,236.0000000000,192.0000000000,39.0000000000,227.0000000000,392.0000000000,479.0000000000
1717674995605,233.0000000000,190.0000000000,39.0000000000,225.0000000000,389.0000000000,475.0000000000
1717674995605,231.0000000000,188.0000000000,39.0000000000,224.0000000000,386.0000000000,471.0000000000
1717674995606,231.0000000000,188.0000000000,38.0000000000,222.0000000000,384.0000000000,467.0000000000
1717674995607,228.0000000000,185.0000000000,38.0000000000,221.0000000000,380.0000000000,473.0000000000
1717674995608,227.0000000000,184.0000000000,38.0000000000,220.0000000000,376.0000000000,693.0000000000
1717674995609,225.0000000000,183.0000000000,38.0000000000,218.0000000000,374.0000000000,688.0000000000
1717674995610,224.0000000000,182.0000000000,37.0000000000,216.0000000000,371.0000000000,679.0000000000
1717674995611,223.0000000000,180.0000000000,37.0000000000,216.0000000000,368.0000000000,671.0000000000
1717674995612,221.0000000000,179.0000000000,36.0000000000,214.0000000000,365.0000000000,660.0000000000
1717674995643,220.0000000000,177.0000000000,36.0000000000,212.0000000000,363.0000000000,653.0000000000
1717674995643,219.0000000000,176.0000000000,36.0000000000,211.0000000000,359.0000000000,646.0000000000
1717674995644,216.0000000000,175.0000000000,36.0000000000,209.0000000000,357.0000000000,639.0000000000
1717674995644,216.0000000000,174.0000000000,35.0000000000,304.0000000000,411.0000000000,632.0000000000
1717674995644,214.0000000000,173.0000000000,35.0000000000,300.0000000000,420.0000000000,625.0000000000
1717674995644,212.0000000000,172.0000000000,35.0000000000,296.0000000000,417.0000000000,619.0000000000
1717674995644,211.0000000000,171.0000000000,35.0000000000,295.0000000000,413.0000000000,612.0000000000
1717674995644,209.0000000000,169.0000000000,35.0000000000,291.0000000000,409.0000000000,606.0000000000
1717674995644,208.0000000000,167.0000000000,38.0000000000,289.0000000000,406.0000000000,600.0000000000
1717674995644,207.0000000000,167.0000000000,38.0000000000,287.0000000000,402.0000000000,591.0000000000
1717674995645,206.0000000000,166.0000000000,38.0000000000,285.0000000000,399.0000000000,586.0000000000
1717674995645,204.0000000000,165.0000000000,37.0000000000,283.0000000000,396.0000000000,580.0000000000
1717674995646,203.0000000000,163.0000000000,36.0000000000,280.0000000000,391.0000000000,575.0000000000
1717674995646,201.0000000000,163.0000000000,36.0000000000,278.0000000000,390.0000000000,569.0000000000
1717674995646,199.0000000000,161.0000000000,36.0000000000,276.0000000000,385.0000000000,563.0000000000
1717674995646,199.0000000000,160.0000000000,35.0000000000,275.0000000000,382.0000000000,558.0000000000
1717674995662,198.0000000000,159.0000000000,35.0000000000,272.0000000000,380.0000000000,553.0000000000
1717674995663,196.0000000000,158.0000000000,35.0000000000,270.0000000000,376.0000000000,547.0000000000
1717674995663,195.0000000000,157.0000000000,35.0000000000,268.0000000000,374.0000000000,543.0000000000
1717674995663,194.0000000000,156.0000000000,35.0000000000,265.0000000000,371.0000000000,615.0000000000
1717674995663,192.0000000000,155.0000000000,56.0000000000,263.0000000000,368.0000000000,609.0000000000
1717674995663,192.0000000000,155.0000000000,56.0000000000,262.0000000000,364.0000000000,602.0000000000
1717674995663,190.0000000000,153.0000000000,55.0000000000,259.0000000000,363.0000000000,595.0000000000
1717674995663,188.0000000000,152.0000000000,55.0000000000,259.0000000000,359.0000000000,589.0000000000
1717674995679,188.0000000000,152.0000000000,54.0000000000,255.0000000000,356.0000000000,583.0000000000
1717674995679,187.0000000000,150.0000000000,54.0000000000,255.0000000000,353.0000000000,625.0000000000
1717674995679,185.0000000000,150.0000000000,54.0000000000,253.0000000000,351.0000000000,619.0000000000
1717674995679,184.0000000000,148.0000000000,53.0000000000,252.0000000000,348.0000000000,611.0000000000
1717674995680,183.0000000000,147.0000000000,52.0000000000,249.0000000000,345.0000000000,604.0000000000
1717674995680,182.0000000000,147.0000000000,52.0000000000,249.0000000000,344.0000000000,596.0000000000
1717674995680,181.0000000000,145.0000000000,51.0000000000,273.0000000000,341.0000000000,590.0000000000
1717674995680,217.0000000000,145.0000000000,51.0000000000,271.0000000000,339.0000000000,583.0000000000
1717674995695,268.0000000000,143.0000000000,51.0000000000,268.0000000000,335.0000000000,577.0000000000
1717674995696,265.0000000000,143.0000000000,51.0000000000,267.0000000000,334.0000000000,572.0000000000
1717674995696,263.0000000000,142.0000000000,51.0000000000,263.0000000000,331.0000000000,566.0000000000
1717674995696,261.0000000000,141.0000000000,50.0000000000,263.0000000000,327.0000000000,560.0000000000
1717674995696,259.0000000000,140.0000000000,49.0000000000,260.0000000000,327.0000000000,555.0000000000
1717674995696,255.0000000000,139.0000000000,49.0000000000,259.0000000000,324.0000000000,550.0000000000
1717674995696,255.0000000000,139.0000000000,49.0000000000,255.0000000000,322.0000000000,544.0000000000
1717674995696,252.0000000000,137.0000000000,49.0000000000,254.0000000000,319.0000000000,538.0000000000
1717674995715,251.0000000000,136.0000000000,48.0000000000,252.0000000000,317.0000000000,534.0000000000
1717674995716,249.0000000000,135.0000000000,48.0000000000,298.0000000000,315.0000000000,528.0000000000
1717674995716,247.0000000000,135.0000000000,48.0000000000,295.0000000000,313.0000000000,524.0000000000
1717674995716,245.0000000000,134.0000000000,47.0000000000,293.0000000000,312.0000000000,519.0000000000
1717674995716,243.0000000000,133.0000000000,47.0000000000,291.0000000000,308.0000000000,515.0000000000
1717674995716,241.0000000000,132.0000000000,47.0000000000,287.0000000000,307.0000000000,510.0000000000
1717674995717,240.0000000000,131.0000000000,47.0000000000,286.0000000000,344.0000000000,505.0000000000
1717674995717,238.0000000000,131.0000000000,46.0000000000,284.0000000000,340.0000000000,501.0000000000
1717674995717,236.0000000000,130.0000000000,46.0000000000,281.0000000000,337.0000000000,496.0000000000
1717674995717,235.0000000000,129.0000000000,45.0000000000,279.0000000000,335.0000000000,492.0000000000
1717674995717,233.0000000000,128.0000000000,44.0000000000,276.0000000000,332.0000000000,487.0000000000
1717674995718,231.0000000000,127.0000000000,45.0000000000,275.0000000000,329.0000000000,483.0000000000
1717674995738,230.0000000000,127.0000000000,44.0000000000,272.0000000000,327.0000000000,480.0000000000
1717674995739,227.0000000000,126.0000000000,44.0000000000,271.0000000000,324.0000000000,476.0000000000
1717674995739,226.0000000000,125.0000000000,44.0000000000,268.0000000000,321.0000000000,472.0000000000
1717674995739,224.0000000000,124.0000000000,44.0000000000,271.0000000000,319.0000000000,467.0000000000
1717674995739,223.0000000000,124.0000000000,44.0000000000,268.0000000000,316.0000000000,463.0000000000
1717674995739,222.0000000000,123.0000000000,43.0000000000,267.0000000000,314.0000000000,460.0000000000
1717674995739,220.0000000000,122.0000000000,43.0000000000,265.0000000000,312.0000000000,455.0000000000
1717674995740,219.0000000000,121.0000000000,43.0000000000,263.0000000000,309.0000000000,451.0000000000
1717674995740,217.0000000000,120.0000000000,42.0000000000,260.0000000000,307.0000000000,448.0000000000
1717674995740,216.0000000000,120.0000000000,41.0000000000,259.0000000000,305.0000000000,444.0000000000
1717674995756,214.0000000000,120.0000000000,41.0000000000,256.0000000000,303.0000000000,441.0000000000
1717674995758,212.0000000000,118.0000000000,41.0000000000,255.0000000000,300.0000000000,438.0000000000
1717674995758,211.0000000000,118.0000000000,41.0000000000,254.0000000000,298.0000000000,434.0000000000
1717674995758,209.0000000000,117.0000000000,39.0000000000,252.0000000000,295.0000000000,431.0000000000
1717674995759,207.0000000000,116.0000000000,40.0000000000,249.0000000000,295.0000000000,428.0000000000
1717674995759,207.0000000000,115.0000000000,40.0000000000,276.0000000000,292.0000000000,486.0000000000
1717674995759,206.0000000000,115.0000000000,40.0000000000,273.0000000000,291.0000000000,480.0000000000
1717674995759,204.0000000000,114.0000000000,39.0000000000,271.0000000000,289.0000000000,475.0000000000
1717674995760,203.0000000000,113.0000000000,39.0000000000,269.0000000000,287.0000000000,470.0000000000
1717674995760,201.0000000000,113.0000000000,39.0000000000,267.0000000000,285.0000000000,465.0000000000
1717674995784,199.0000000000,112.0000000000,39.0000000000,263.0000000000,283.0000000000,461.0000000000
1717674995785,199.0000000000,111.0000000000,39.0000000000,263.0000000000,281.0000000000,456.0000000000
1717674995785,197.0000000000,111.0000000000,39.0000000000,260.0000000000,279.0000000000,452.0000000000
1717674995785,196.0000000000,110.0000000000,38.0000000000,259.0000000000,276.0000000000,449.0000000000
1717674995785,195.0000000000,110.0000000000,38.0000000000,257.0000000000,275.0000000000,444.0000000000
1717674995785,193.0000000000,109.0000000000,38.0000000000,255.0000000000,273.0000000000,440.0000000000
1717674995785,192.0000000000,108.0000000000,38.0000000000,253.0000000000,271.0000000000,436.0000000000
1717674995786,191.0000000000,108.0000000000,38.0000000000,251.0000000000,271.0000000000,432.0000000000
1717674995786,190.0000000000,107.0000000000,37.0000000000,249.0000000000,268.0000000000,428.0000000000
1717674995786,188.0000000000,106.0000000000,37.0000000000,248.0000000000,267.0000000000,425.0000000000
1717674995786,188.0000000000,105.0000000000,36.0000000000,246.0000000000,265.0000000000,422.0000000000
1717674995786,186.0000000000,105.0000000000,36.0000000000,243.0000000000,263.0000000000,419.0000000000
1717674995801,185.0000000000,104.0000000000,36.0000000000,243.0000000000,262.0000000000,415.0000000000
1717674995802,184.0000000000,103.0000000000,36.0000000000,241.0000000000,260.0000000000,412.0000000000
1717674995802,183.0000000000,103.0000000000,35.0000000000,239.0000000000,259.0000000000,409.0000000000
1717674995802,182.0000000000,103.0000000000,35.0000000000,237.0000000000,255.0000000000,407.0000000000
1717674995803,180.0000000000,102.0000000000,35.0000000000,236.0000000000,255.0000000000,403.0000000000
1717674995803,179.0000000000,102.0000000000,35.0000000000,234.0000000000,254.0000000000,435.0000000000
1717674995803,199.0000000000,100.0000000000,35.0000000000,231.0000000000,252.0000000000,441.0000000000
1717674995803,251.0000000000,100.0000000000,34.0000000000,231.0000000000,272.0000000000,437.0000000000
1717674995803,248.0000000000,99.0000000000,35.0000000000,230.0000000000,270.0000000000,433.0000000000
1717674995803,247.0000000000,99.0000000000,34.0000000000,227.0000000000,268.0000000000,429.0000000000
1717674995819,244.0000000000,99.0000000000,33.0000000000,226.0000000000,265.0000000000,445.0000000000
1717674995820,243.0000000000,98.0000000000,33.0000000000,225.0000000000,263.0000000000,455.0000000000
1717674995820,241.0000000000,97.0000000000,37.0000000000,224.0000000000,262.0000000000,451.0000000000
1717674995820,240.0000000000,97.0000000000,37.0000000000,222.0000000000,259.0000000000,447.0000000000
1717674995820,238.0000000000,96.0000000000,36.0000000000,221.0000000000,258.0000000000,443.0000000000
1717674995820,236.0000000000,96.0000000000,36.0000000000,220.0000000000,255.0000000000,439.0000000000
1717674995820,233.0000000000,95.0000000000,35.0000000000,218.0000000000,259.0000000000,435.0000000000
1717674995820,231.0000000000,95.0000000000,36.0000000000,217.0000000000,334.0000000000,430.0000000000
1717674995821,231.0000000000,94.0000000000,35.0000000000,216.0000000000,329.0000000000,427.0000000000
1717674995834,229.0000000000,94.0000000000,35.0000000000,214.0000000000,327.0000000000,423.0000000000
1717674995835,227.0000000000,93.0000000000,35.0000000000,272.0000000000,326.0000000000,452.0000000000
1717674995836,225.0000000000,92.0000000000,35.0000000000,294.0000000000,323.0000000000,448.0000000000
1717674995836,224.0000000000,92.0000000000,34.0000000000,291.0000000000,319.0000000000,444.0000000000
1717674995836,223.0000000000,92.0000000000,34.0000000000,289.0000000000,318.0000000000,440.0000000000
1717674995836,221.0000000000,96.0000000000,34.0000000000,286.0000000000,315.0000000000,435.0000000000
1717674995836,220.0000000000,96.0000000000,34.0000000000,284.0000000000,312.0000000000,432.0000000000
1717674995836,218.0000000000,95.0000000000,34.0000000000,283.0000000000,310.0000000000,428.0000000000
1717674995853,216.0000000000,94.0000000000,33.0000000000,280.0000000000,307.0000000000,424.0000000000
1717674995853,216.0000000000,93.0000000000,33.0000000000,278.0000000000,305.0000000000,420.0000000000
1717674995854,214.0000000000,93.0000000000,33.0000000000,276.0000000000,304.0000000000,417.0000000000
1717674995854,212.0000000000,92.0000000000,33.0000000000,273.0000000000,301.0000000000,414.0000000000
1717674995854,211.0000000000,92.0000000000,31.0000000000,271.0000000000,299.0000000000,411.0000000000
1717674995854,209.0000000000,91.0000000000,32.0000000000,270.0000000000,295.0000000000,408.0000000000
1717674995854,207.0000000000,90.0000000000,66.0000000000,268.0000000000,295.0000000000,403.0000000000
1717674995854,207.0000000000,89.0000000000,67.0000000000,265.0000000000,292.0000000000,400.0000000000
1717674995870,205.0000000000,89.0000000000,67.0000000000,263.0000000000,291.0000000000,398.0000000000
1717674995870,204.0000000000,88.0000000000,67.0000000000,262.0000000000,289.0000000000,395.0000000000
1717674995871,203.0000000000,88.0000000000,67.0000000000,260.0000000000,287.0000000000,391.0000000000
1717674995871,201.0000000000,88.0000000000,66.0000000000,259.0000000000,284.0000000000,389.0000000000
1717674995871,199.0000000000,88.0000000000,65.0000000000,255.0000000000,283.0000000000,387.0000000000
1717674995871,199.0000000000,87.0000000000,64.0000000000,255.0000000000,280.0000000000,384.0000000000
1717674995871,197.0000000000,87.0000000000,65.0000000000,253.0000000000,280.0000000000,383.0000000000
1717674995871,195.0000000000,127.0000000000,63.0000000000,251.0000000000,277.0000000000,380.0000000000
1717674995871,195.0000000000,126.0000000000,63.0000000000,249.0000000000,275.0000000000,376.0000000000
1717674995887,193.0000000000,124.0000000000,63.0000000000,248.0000000000,273.0000000000,374.0000000000
1717674995887,192.0000000000,124.0000000000,63.0000000000,246.0000000000,271.0000000000,371.0000000000
1717674995887,191.0000000000,122.0000000000,62.0000000000,244.0000000000,270.0000000000,369.0000000000
1717674995887,190.0000000000,121.0000000000,62.0000000000,243.0000000000,268.0000000000,366.0000000000
1717674995888,188.0000000000,120.0000000000,62.0000000000,241.0000000000,265.0000000000,482.0000000000
1717674995888,187.0000000000,120.0000000000,60.0000000000,239.0000000000,263.0000000000,557.0000000000
1717674995889,186.0000000000,119.0000000000,60.0000000000,238.0000000000,262.0000000000,551.0000000000
1717674995889,184.0000000000,118.0000000000,60.0000000000,236.0000000000,259.0000000000,545.0000000000
1717674995908,184.0000000000,118.0000000000,60.0000000000,234.0000000000,259.0000000000,539.0000000000
1717674995910,182.0000000000,116.0000000000,60.0000000000,232.0000000000,255.0000000000,532.0000000000
1717674995911,180.0000000000,115.0000000000,59.0000000000,231.0000000000,255.0000000000,527.0000000000
1717674995911,179.0000000000,115.0000000000,58.0000000000,229.0000000000,253.0000000000,521.0000000000
1717674995912,179.0000000000,114.0000000000,58.0000000000,227.0000000000,252.0000000000,516.0000000000
1717674995912,177.0000000000,113.0000000000,57.0000000000,248.0000000000,375.0000000000,512.0000000000
1717674995912,176.0000000000,112.0000000000,57.0000000000,245.0000000000,380.0000000000,507.0000000000
1717674995913,175.0000000000,112.0000000000,56.0000000000,243.0000000000,376.0000000000,541.0000000000
1717674995913,175.0000000000,111.0000000000,56.0000000000,241.0000000000,374.0000000000,544.0000000000
1717674995913,173.0000000000,110.0000000000,56.0000000000,240.0000000000,370.0000000000,539.0000000000
1717674995914,172.0000000000,110.0000000000,56.0000000000,237.0000000000,368.0000000000,534.0000000000
1717674995914,171.0000000000,109.0000000000,56.0000000000,236.0000000000,364.0000000000,527.0000000000
1717674995915,169.0000000000,108.0000000000,55.0000000000,233.0000000000,361.0000000000,521.0000000000
1717674995915,167.0000000000,107.0000000000,54.0000000000,231.0000000000,358.0000000000,516.0000000000
1717674995947,167.0000000000,107.0000000000,54.0000000000,231.0000000000,355.0000000000,511.0000000000
1717674995949,172.0000000000,105.0000000000,53.0000000000,228.0000000000,352.0000000000,507.0000000000
1717674995949,169.0000000000,105.0000000000,54.0000000000,227.0000000000,349.0000000000,502.0000000000
1717674995949,169.0000000000,104.0000000000,52.0000000000,225.0000000000,347.0000000000,497.0000000000
1717674995949,167.0000000000,103.0000000000,53.0000000000,224.0000000000,344.0000000000,493.0000000000
1717674995950,167.0000000000,103.0000000000,52.0000000000,231.0000000000,342.0000000000,488.0000000000
1717674995950,166.0000000000,102.0000000000,51.0000000000,245.0000000000,339.0000000000,484.0000000000
1717674995951,164.0000000000,102.0000000000,51.0000000000,243.0000000000,335.0000000000,479.0000000000
1717674995951,163.0000000000,101.0000000000,51.0000000000,241.0000000000,334.0000000000,475.0000000000
1717674995951,163.0000000000,100.0000000000,51.0000000000,240.0000000000,331.0000000000,470.0000000000
1717674995951,161.0000000000,99.0000000000,51.0000000000,238.0000000000,327.0000000000,500.0000000000
1717674995952,161.0000000000,99.0000000000,50.0000000000,236.0000000000,327.0000000000,582.0000000000
1717674995952,164.0000000000,99.0000000000,50.0000000000,235.0000000000,324.0000000000,575.0000000000
1717674995952,163.0000000000,97.0000000000,50.0000000000,231.0000000000,321.0000000000,569.0000000000
1717674995952,163.0000000000,97.0000000000,49.0000000000,231.0000000000,319.0000000000,566.0000000000
1717674995953,161.0000000000,135.0000000000,49.0000000000,230.0000000000,317.0000000000,622.0000000000
1717674995953,160.0000000000,134.0000000000,48.0000000000,227.0000000000,315.0000000000,638.0000000000
1717674995953,159.0000000000,132.0000000000,49.0000000000,225.0000000000,312.0000000000,630.0000000000
1717674995971,158.0000000000,132.0000000000,48.0000000000,224.0000000000,310.0000000000,622.0000000000
1717674995972,158.0000000000,131.0000000000,48.0000000000,223.0000000000,308.0000000000,615.0000000000
1717674995972,156.0000000000,129.0000000000,47.0000000000,222.0000000000,305.0000000000,609.0000000000
1717674995972,156.0000000000,129.0000000000,48.0000000000,220.0000000000,304.0000000000,603.0000000000
1717674995972,155.0000000000,127.0000000000,47.0000000000,218.0000000000,301.0000000000,595.0000000000
1717674995972,154.0000000000,127.0000000000,47.0000000000,217.0000000000,300.0000000000,590.0000000000
1717674995972,152.0000000000,126.0000000000,46.0000000000,216.0000000000,296.0000000000,583.0000000000
1717674995973,152.0000000000,125.0000000000,46.0000000000,214.0000000000,295.0000000000,638.0000000000
1717674995973,152.0000000000,124.0000000000,46.0000000000,212.0000000000,293.0000000000,636.0000000000
1717674995973,151.0000000000,124.0000000000,46.0000000000,211.0000000000,291.0000000000,628.0000000000
1717674995987,150.0000000000,122.0000000000,46.0000000000,209.0000000000,289.0000000000,621.0000000000
1717674995988,148.0000000000,121.0000000000,44.0000000000,207.0000000000,287.0000000000,614.0000000000
1717674995988,147.0000000000,120.0000000000,44.0000000000,207.0000000000,284.0000000000,608.0000000000
1717674995988,147.0000000000,120.0000000000,44.0000000000,206.0000000000,283.0000000000,601.0000000000
1717674995988,146.0000000000,120.0000000000,44.0000000000,204.0000000000,280.0000000000,595.0000000000
1717674995988,145.0000000000,118.0000000000,44.0000000000,203.0000000000,280.0000000000,589.0000000000
1717674995988,144.0000000000,118.0000000000,43.0000000000,201.0000000000,278.0000000000,583.0000000000
1717674995988,143.0000000000,117.0000000000,43.0000000000,200.0000000000,275.0000000000,575.0000000000
1717674996004,143.0000000000,115.0000000000,43.0000000000,199.0000000000,273.0000000000,569.0000000000
1717674996004,142.0000000000,115.0000000000,43.0000000000,198.0000000000,271.0000000000,564.0000000000
1717674996005,141.0000000000,114.0000000000,42.0000000000,196.0000000000,270.0000000000,559.0000000000
1717674996005,140.0000000000,113.0000000000,42.0000000000,195.0000000000,268.0000000000,553.0000000000
1717674996005,140.0000000000,113.0000000000,41.0000000000,332.0000000000,265.0000000000,548.0000000000
1717674996005,139.0000000000,112.0000000000,41.0000000000,327.0000000000,263.0000000000,543.0000000000
1717674996005,138.0000000000,111.0000000000,41.0000000000,323.0000000000,263.0000000000,537.0000000000
1717674996005,137.0000000000,111.0000000000,41.0000000000,320.0000000000,260.0000000000,533.0000000000
1717674996022,135.0000000000,110.0000000000,39.0000000000,318.0000000000,259.0000000000,527.0000000000
1717674996023,135.0000000000,109.0000000000,40.0000000000,315.0000000000,257.0000000000,521.0000000000
1717674996023,135.0000000000,111.0000000000,39.0000000000,312.0000000000,255.0000000000,518.0000000000
1717674996023,134.0000000000,110.0000000000,39.0000000000,310.0000000000,254.0000000000,512.0000000000
1717674996023,134.0000000000,109.0000000000,39.0000000000,307.0000000000,252.0000000000,508.0000000000
1717674996023,132.0000000000,108.0000000000,39.0000000000,305.0000000000,251.0000000000,504.0000000000
1717674996023,131.0000000000,108.0000000000,39.0000000000,303.0000000000,249.0000000000,499.0000000000
1717674996024,131.0000000000,108.0000000000,39.0000000000,300.0000000000,248.0000000000,556.0000000000
1717674996041,131.0000000000,107.0000000000,38.0000000000,297.0000000000,246.0000000000,595.0000000000
1717674996042,129.0000000000,105.0000000000,38.0000000000,295.0000000000,244.0000000000,589.0000000000
1717674996042,129.0000000000,105.0000000000,38.0000000000,294.0000000000,243.0000000000,583.0000000000
1717674996042,127.0000000000,104.0000000000,38.0000000000,291.0000000000,241.0000000000,575.0000000000
1717674996042,127.0000000000,103.0000000000,37.0000000000,288.0000000000,240.0000000000,568.0000000000
1717674996042,127.0000000000,103.0000000000,38.0000000000,287.0000000000,239.0000000000,563.0000000000
1717674996042,126.0000000000,103.0000000000,37.0000000000,290.0000000000,237.0000000000,620.0000000000
1717674996042,156.0000000000,102.0000000000,36.0000000000,318.0000000000,236.0000000000,611.0000000000
1717674996043,167.0000000000,101.0000000000,36.0000000000,315.0000000000,234.0000000000,605.0000000000
1717674996043,167.0000000000,100.0000000000,36.0000000000,312.0000000000,231.0000000000,600.0000000000
1717674996057,165.0000000000,99.0000000000,36.0000000000,310.0000000000,231.0000000000,591.0000000000
1717674996057,163.0000000000,99.0000000000,35.0000000000,307.0000000000,230.0000000000,586.0000000000
1717674996057,163.0000000000,98.0000000000,35.0000000000,305.0000000000,228.0000000000,580.0000000000
1717674996057,161.0000000000,98.0000000000,35.0000000000,302.0000000000,227.0000000000,575.0000000000
1717674996058,159.0000000000,97.0000000000,35.0000000000,300.0000000000,227.0000000000,568.0000000000
1717674996058,159.0000000000,97.0000000000,35.0000000000,297.0000000000,225.0000000000,563.0000000000
1717674996058,158.0000000000,96.0000000000,35.0000000000,295.0000000000,224.0000000000,557.0000000000
1717674996058,156.0000000000,96.0000000000,35.0000000000,293.0000000000,223.0000000000,551.0000000000
1717674996075,172.0000000000,95.0000000000,35.0000000000,291.0000000000,221.0000000000,546.0000000000
1717674996076,177.0000000000,94.0000000000,35.0000000000,289.0000000000,220.0000000000,542.0000000000
1717674996077,175.0000000000,94.0000000000,35.0000000000,287.0000000000,219.0000000000,537.0000000000
1717674996077,174.0000000000,93.0000000000,34.0000000000,285.0000000000,217.0000000000,532.0000000000
1717674996077,173.0000000000,92.0000000000,34.0000000000,283.0000000000,231.0000000000,527.0000000000
1717674996077,172.0000000000,92.0000000000,34.0000000000,281.0000000000,287.0000000000,523.0000000000
1717674996077,170.0000000000,92.0000000000,34.0000000000,279.0000000000,286.0000000000,518.0000000000
1717674996077,169.0000000000,91.0000000000,33.0000000000,277.0000000000,284.0000000000,512.0000000000
1717674996077,167.0000000000,91.0000000000,33.0000000000,275.0000000000,281.0000000000,508.0000000000
1717674996078,167.0000000000,90.0000000000,33.0000000000,273.0000000000,280.0000000000,504.0000000000
1717674996078,166.0000000000,89.0000000000,33.0000000000,271.0000000000,277.0000000000,499.0000000000
1717674996093,166.0000000000,88.0000000000,33.0000000000,270.0000000000,290.0000000000,495.0000000000
1717674996094,164.0000000000,88.0000000000,32.0000000000,268.0000000000,330.0000000000,491.0000000000
1717674996095,163.0000000000,132.0000000000,31.0000000000,265.0000000000,327.0000000000,487.0000000000
1717674996096,163.0000000000,131.0000000000,32.0000000000,263.0000000000,324.0000000000,483.0000000000
1717674996096,161.0000000000,129.0000000000,31.0000000000,262.0000000000,321.0000000000,478.0000000000
1717674996097,159.0000000000,129.0000000000,31.0000000000,260.0000000000,319.0000000000,474.0000000000
1717674996097,159.0000000000,127.0000000000,31.0000000000,259.0000000000,316.0000000000,471.0000000000
1717674996097,158.0000000000,126.0000000000,31.0000000000,257.0000000000,313.0000000000,467.0000000000
1717674996126,156.0000000000,126.0000000000,31.0000000000,255.0000000000,312.0000000000,463.0000000000
1717674996128,156.0000000000,124.0000000000,31.0000000000,252.0000000000,308.0000000000,459.0000000000
1717674996128,155.0000000000,124.0000000000,31.0000000000,251.0000000000,307.0000000000,495.0000000000
1717674996128,153.0000000000,123.0000000000,31.0000000000,249.0000000000,304.0000000000,542.0000000000
1717674996129,152.0000000000,122.0000000000,30.0000000000,248.0000000000,302.0000000000,536.0000000000
1717674996129,152.0000000000,121.0000000000,30.0000000000,246.0000000000,300.0000000000,530.0000000000
1717674996129,150.0000000000,120.0000000000,43.0000000000,245.0000000000,297.0000000000,524.0000000000
1717674996129,150.0000000000,120.0000000000,43.0000000000,243.0000000000,295.0000000000,519.0000000000
1717674996129,148.0000000000,119.0000000000,43.0000000000,241.0000000000,292.0000000000,515.0000000000
1717674996129,147.0000000000,118.0000000000,42.0000000000,240.0000000000,291.0000000000,511.0000000000
1717674996129,146.0000000000,117.0000000000,42.0000000000,238.0000000000,288.0000000000,505.0000000000
1717674996129,145.0000000000,116.0000000000,41.0000000000,236.0000000000,287.0000000000,500.0000000000
1717674996129,143.0000000000,115.0000000000,41.0000000000,235.0000000000,284.0000000000,495.0000000000
1717674996129,143.0000000000,115.0000000000,41.0000000000,233.0000000000,283.0000000000,491.0000000000
1717674996130,142.0000000000,114.0000000000,40.0000000000,231.0000000000,280.0000000000,486.0000000000
1717674996130,142.0000000000,113.0000000000,39.0000000000,230.0000000000,279.0000000000,482.0000000000
1717674996147,140.0000000000,112.0000000000,39.0000000000,228.0000000000,275.0000000000,478.0000000000
1717674996148,140.0000000000,112.0000000000,39.0000000000,254.0000000000,274.0000000000,473.0000000000
1717674996148,139.0000000000,111.0000000000,39.0000000000,251.0000000000,271.0000000000,469.0000000000
1717674996148,137.0000000000,111.0000000000,39.0000000000,249.0000000000,271.0000000000,465.0000000000
1717674996148,135.0000000000,110.0000000000,39.0000000000,247.0000000000,268.0000000000,462.0000000000
1717674996148,137.0000000000,109.0000000000,39.0000000000,244.0000000000,267.0000000000,455.0000000000
1717674996148,135.0000000000,108.0000000000,39.0000000000,243.0000000000,265.0000000000,452.0000000000
1717674996149,135.0000000000,108.0000000000,39.0000000000,240.0000000000,263.0000000000,448.0000000000
1717674996149,134.0000000000,107.0000000000,38.0000000000,239.0000000000,261.0000000000,445.0000000000
1717674996149,134.0000000000,107.0000000000,38.0000000000,238.0000000000,259.0000000000,441.0000000000
1717674996165,132.0000000000,105.0000000000,37.0000000000,236.0000000000,257.0000000000,439.0000000000
1717674996166,131.0000000000,105.0000000000,38.0000000000,234.0000000000,255.0000000000,434.0000000000
1717674996166,131.0000000000,105.0000000000,37.0000000000,231.0000000000,254.0000000000,432.0000000000
1717674996166,130.0000000000,103.0000000000,36.0000000000,230.0000000000,252.0000000000,428.0000000000
1717674996166,129.0000000000,103.0000000000,36.0000000000,229.0000000000,251.0000000000,423.0000000000
1717674996166,127.0000000000,103.0000000000,35.0000000000,227.0000000000,248.0000000000,420.0000000000
1717674996166,127.0000000000,101.0000000000,35.0000000000,225.0000000000,248.0000000000,417.0000000000
1717674996166,127.0000000000,101.0000000000,35.0000000000,224.0000000000,246.0000000000,414.0000000000
1717674996182,126.0000000000,100.0000000000,35.0000000000,223.0000000000,244.0000000000,411.0000000000
1717674996183,126.0000000000,99.0000000000,35.0000000000,221.0000000000,243.0000000000,408.0000000000
1717674996183,124.0000000000,99.0000000000,35.0000000000,220.0000000000,241.0000000000,404.0000000000
1717674996183,124.0000000000,99.0000000000,35.0000000000,219.0000000000,240.0000000000,401.0000000000
1717674996183,123.0000000000,98.0000000000,35.0000000000,217.0000000000,238.0000000000,399.0000000000
1717674996183,122.0000000000,97.0000000000,35.0000000000,216.0000000000,236.0000000000,396.0000000000
1717674996183,121.0000000000,96.0000000000,34.0000000000,215.0000000000,236.0000000000,394.0000000000
1717674996183,192.0000000000,96.0000000000,34.0000000000,213.0000000000,233.0000000000,391.0000000000
1717674996198,189.0000000000,95.0000000000,34.0000000000,211.0000000000,231.0000000000,388.0000000000
1717674996199,188.0000000000,95.0000000000,33.0000000000,210.0000000000,231.0000000000,385.0000000000
1717674996199,185.0000000000,94.0000000000,33.0000000000,209.0000000000,229.0000000000,383.0000000000
