timestamp,Channel 1,Channel 2,Channel 3,Channel 4,Channel 5,Channel 6
1717675006974,68.0000000000,0.0000000000,3.0000000000,109.0000000000,138.0000000000,0.0000000000
1717675006975,67.0000000000,0.0000000000,3.0000000000,108.0000000000,137.0000000000,0.0000000000
1717675006975,67.0000000000,0.0000000000,3.0000000000,108.0000000000,135.0000000000,0.0000000000
1717675006975,67.0000000000,0.0000000000,3.0000000000,107.0000000000,135.0000000000,0.0000000000
1717675006975,67.0000000000,0.0000000000,3.0000000000,107.0000000000,135.0000000000,0.0000000000
1717675006975,66.0000000000,0.0000000000,3.0000000000,107.0000000000,134.0000000000,0.0000000000
1717675006975,65.0000000000,0.0000000000,3.0000000000,105.0000000000,133.0000000000,0.0000000000
1717675006976,65.0000000000,0.0000000000,3.0000000000,105.0000000000,131.0000000000,0.0000000000
1717675006976,65.0000000000,0.0000000000,3.0000000000,104.0000000000,131.0000000000,0.0000000000
1717675006976,65.0000000000,0.0000000000,3.0000000000,103.0000000000,131.0000000000,0.0000000000
1717675006977,63.0000000000,0.0000000000,3.0000000000,103.0000000000,130.0000000000,0.0000000000
1717675006977,63.0000000000,0.0000000000,3.0000000000,103.0000000000,129.0000000000,0.0000000000
1717675006977,63.0000000000,0.0000000000,3.0000000000,103.0000000000,129.0000000000,0.0000000000
1717675006977,63.0000000000,0.0000000000,3.0000000000,102.0000000000,127.0000000000,0.0000000000
1717675006977,63.0000000000,0.0000000000,3.0000000000,102.0000000000,127.0000000000,0.0000000000
1717675006977,63.0000000000,0.0000000000,3.0000000000,101.0000000000,127.0000000000,0.0000000000
1717675006989,62.0000000000,0.0000000000,3.0000000000,100.0000000000,126.0000000000,0.0000000000
1717675006990,62.0000000000,0.0000000000,3.0000000000,100.0000000000,126.0000000000,0.0000000000
1717675006990,62.0000000000,0.0000000000,4.0000000000,99.0000000000,125.0000000000,0.0000000000
1717675006990,62.0000000000,0.0000000000,3.0000000000,99.0000000000,124.0000000000,0.0000000000
1717675006990,61.0000000000,0.0000000000,4.0000000000,99.0000000000,124.0000000000,0.0000000000
1717675006990,61.0000000000,0.0000000000,3.0000000000,98.0000000000,124.0000000000,0.0000000000
1717675006991,60.0000000000,0.0000000000,3.0000000000,98.0000000000,123.0000000000,0.0000000000
1717675006991,60.0000000000,0.0000000000,3.0000000000,97.0000000000,121.0000000000,0.0000000000
1717675006991,60.0000000000,0.0000000000,3.0000000000,96.0000000000,121.0000000000,0.0000000000
1717675006991,60.0000000000,0.0000000000,3.0000000000,96.0000000000,120.0000000000,0.0000000000
1717675006991,59.0000000000,0.0000000000,3.0000000000,96.0000000000,120.0000000000,0.0000000000
1717675007004,59.0000000000,0.0000000000,3.0000000000,96.0000000000,120.0000000000,0.0000000000
1717675007005,58.0000000000,0.0000000000,3.0000000000,95.0000000000,120.0000000000,0.0000000000
1717675007005,58.0000000000,0.0000000000,3.0000000000,95.0000000000,119.0000000000,0.0000000000
1717675007005,57.0000000000,0.0000000000,3.0000000000,94.0000000000,119.0000000000,0.0000000000
1717675007006,57.0000000000,0.0000000000,3.0000000000,94.0000000000,117.0000000000,0.0000000000
1717675007006,57.0000000000,0.0000000000,3.0000000000,94.0000000000,116.0000000000,0.0000000000
1717675007006,57.0000000000,0.0000000000,3.0000000000,93.0000000000,116.0000000000,0.0000000000
1717675007006,56.0000000000,0.0000000000,3.0000000000,93.0000000000,115.0000000000,0.0000000000
1717675007006,56.0000000000,0.0000000000,3.0000000000,92.0000000000,115.0000000000,0.0000000000
1717675007006,59.0000000000,0.0000000000,3.0000000000,107.0000000000,115.0000000000,0.0000000000
1717675007007,58.0000000000,0.0000000000,3.0000000000,136.0000000000,114.0000000000,0.0000000000
1717675007007,58.0000000000,0.0000000000,3.0000000000,135.0000000000,113.0000000000,0.0000000000
1717675007030,57.0000000000,0.0000000000,3.0000000000,135.0000000000,113.0000000000,0.0000000000
1717675007030,57.0000000000,0.0000000000,3.0000000000,134.0000000000,112.0000000000,0.0000000000
1717675007030,57.0000000000,0.0000000000,3.0000000000,132.0000000000,112.0000000000,0.0000000000
1717675007030,57.0000000000,0.0000000000,3.0000000000,132.0000000000,111.0000000000,0.0000000000
1717675007030,56.0000000000,0.0000000000,3.0000000000,131.0000000000,111.0000000000,0.0000000000
1717675007031,56.0000000000,0.0000000000,3.0000000000,131.0000000000,111.0000000000,0.0000000000
1717675007031,56.0000000000,0.0000000000,3.0000000000,130.0000000000,110.0000000000,0.0000000000
1717675007031,56.0000000000,0.0000000000,3.0000000000,129.0000000000,109.0000000000,0.0000000000
1717675007031,56.0000000000,0.0000000000,3.0000000000,128.0000000000,108.0000000000,0.0000000000
1717675007031,55.0000000000,0.0000000000,3.0000000000,127.0000000000,108.0000000000,0.0000000000
1717675007031,55.0000000000,0.0000000000,3.0000000000,127.0000000000,107.0000000000,7.0000000000
1717675007031,55.0000000000,0.0000000000,3.0000000000,126.0000000000,107.0000000000,7.0000000000
1717675007031,54.0000000000,0.0000000000,3.0000000000,125.0000000000,107.0000000000,7.0000000000
1717675007031,54.0000000000,0.0000000000,3.0000000000,125.0000000000,106.0000000000,7.0000000000
1717675007031,54.0000000000,0.0000000000,3.0000000000,124.0000000000,105.0000000000,7.0000000000
1717675007032,54.0000000000,0.0000000000,3.0000000000,124.0000000000,105.0000000000,7.0000000000
1717675007045,54.0000000000,0.0000000000,3.0000000000,123.0000000000,104.0000000000,7.0000000000
1717675007045,53.0000000000,0.0000000000,3.0000000000,121.0000000000,103.0000000000,7.0000000000
1717675007045,52.0000000000,0.0000000000,3.0000000000,121.0000000000,103.0000000000,7.0000000000
1717675007045,52.0000000000,0.0000000000,3.0000000000,121.0000000000,108.0000000000,7.0000000000
1717675007046,52.0000000000,0.0000000000,3.0000000000,120.0000000000,108.0000000000,7.0000000000
1717675007046,51.0000000000,0.0000000000,3.0000000000,120.0000000000,108.0000000000,7.0000000000
1717675007046,51.0000000000,0.0000000000,3.0000000000,120.0000000000,107.0000000000,7.0000000000
1717675007046,51.0000000000,0.0000000000,3.0000000000,119.0000000000,107.0000000000,7.0000000000
1717675007060,51.0000000000,0.0000000000,3.0000000000,118.0000000000,105.0000000000,7.0000000000
1717675007060,51.0000000000,0.0000000000,3.0000000000,118.0000000000,105.0000000000,6.0000000000
1717675007060,50.0000000000,0.0000000000,3.0000000000,116.0000000000,104.0000000000,7.0000000000
1717675007060,50.0000000000,0.0000000000,3.0000000000,115.0000000000,103.0000000000,7.0000000000
1717675007061,50.0000000000,0.0000000000,3.0000000000,115.0000000000,103.0000000000,7.0000000000
1717675007061,49.0000000000,0.0000000000,3.0000000000,115.0000000000,103.0000000000,6.0000000000
1717675007061,49.0000000000,0.0000000000,3.0000000000,114.0000000000,103.0000000000,7.0000000000
1717675007061,49.0000000000,0.0000000000,3.0000000000,113.0000000000,102.0000000000,6.0000000000
1717675007061,49.0000000000,0.0000000000,3.0000000000,113.0000000000,102.0000000000,6.0000000000
1717675007061,48.0000000000,0.0000000000,3.0000000000,113.0000000000,101.0000000000,6.0000000000
1717675007087,48.0000000000,0.0000000000,3.0000000000,112.0000000000,100.0000000000,7.0000000000
1717675007088,48.0000000000,0.0000000000,3.0000000000,111.0000000000,99.0000000000,25.0000000000
1717675007088,48.0000000000,0.0000000000,3.0000000000,111.0000000000,99.0000000000,25.0000000000
1717675007088,48.0000000000,0.0000000000,3.0000000000,110.0000000000,99.0000000000,25.0000000000
1717675007088,48.0000000000,0.0000000000,3.0000000000,110.0000000000,99.0000000000,24.0000000000
1717675007088,47.0000000000,0.0000000000,3.0000000000,109.0000000000,98.0000000000,24.0000000000
1717675007088,47.0000000000,0.0000000000,3.0000000000,108.0000000000,97.0000000000,24.0000000000
1717675007089,47.0000000000,0.0000000000,3.0000000000,108.0000000000,97.0000000000,24.0000000000
1717675007089,47.0000000000,0.0000000000,3.0000000000,108.0000000000,97.0000000000,24.0000000000
1717675007089,47.0000000000,0.0000000000,3.0000000000,107.0000000000,96.0000000000,24.0000000000
1717675007089,46.0000000000,0.0000000000,3.0000000000,107.0000000000,164.0000000000,24.0000000000
1717675007089,46.0000000000,0.0000000000,3.0000000000,106.0000000000,162.0000000000,24.0000000000
1717675007089,46.0000000000,0.0000000000,3.0000000000,104.0000000000,161.0000000000,24.0000000000
1717675007089,45.0000000000,0.0000000000,3.0000000000,103.0000000000,159.0000000000,24.0000000000
1717675007089,45.0000000000,0.0000000000,3.0000000000,103.0000000000,159.0000000000,24.0000000000
1717675007089,47.0000000000,0.0000000000,3.0000000000,103.0000000000,158.0000000000,23.0000000000
1717675007089,48.0000000000,0.0000000000,3.0000000000,103.0000000000,157.0000000000,23.0000000000
1717675007090,47.0000000000,0.0000000000,2.0000000000,102.0000000000,156.0000000000,23.0000000000
1717675007090,47.0000000000,0.0000000000,3.0000000000,102.0000000000,155.0000000000,23.0000000000
1717675007105,47.0000000000,0.0000000000,3.0000000000,102.0000000000,155.0000000000,23.0000000000
1717675007106,47.0000000000,0.0000000000,3.0000000000,100.0000000000,153.0000000000,23.0000000000
1717675007106,46.0000000000,0.0000000000,2.0000000000,100.0000000000,153.0000000000,22.0000000000
1717675007106,46.0000000000,0.0000000000,2.0000000000,99.0000000000,152.0000000000,22.0000000000
1717675007106,46.0000000000,0.0000000000,2.0000000000,99.0000000000,152.0000000000,22.0000000000
1717675007106,45.0000000000,0.0000000000,3.0000000000,99.0000000000,150.0000000000,22.0000000000
1717675007106,45.0000000000,0.0000000000,3.0000000000,98.0000000000,150.0000000000,22.0000000000
1717675007106,45.0000000000,0.0000000000,3.0000000000,98.0000000000,149.0000000000,22.0000000000
1717675007107,49.0000000000,0.0000000000,3.0000000000,97.0000000000,147.0000000000,22.0000000000
1717675007107,79.0000000000,0.0000000000,3.0000000000,97.0000000000,147.0000000000,22.0000000000
1717675007123,79.0000000000,0.0000000000,3.0000000000,96.0000000000,147.0000000000,21.0000000000
1717675007124,78.0000000000,0.0000000000,3.0000000000,96.0000000000,145.0000000000,22.0000000000
1717675007125,77.0000000000,0.0000000000,3.0000000000,96.0000000000,144.0000000000,21.0000000000
1717675007126,76.0000000000,0.0000000000,3.0000000000,95.0000000000,143.0000000000,21.0000000000
1717675007126,76.0000000000,0.0000000000,3.0000000000,94.0000000000,143.0000000000,20.0000000000
1717675007126,76.0000000000,0.0000000000,3.0000000000,94.0000000000,143.0000000000,20.0000000000
1717675007126,75.0000000000,0.0000000000,3.0000000000,94.0000000000,142.0000000000,20.0000000000
1717675007127,75.0000000000,0.0000000000,3.0000000000,93.0000000000,142.0000000000,20.0000000000
1717675007127,74.0000000000,0.0000000000,3.0000000000,92.0000000000,141.0000000000,20.0000000000
1717675007127,74.0000000000,0.0000000000,3.0000000000,92.0000000000,140.0000000000,20.0000000000
1717675007127,73.0000000000,0.0000000000,3.0000000000,92.0000000000,139.0000000000,20.0000000000
1717675007128,73.0000000000,0.0000000000,3.0000000000,92.0000000000,139.0000000000,20.0000000000
1717675007128,72.0000000000,0.0000000000,3.0000000000,91.0000000000,138.0000000000,19.0000000000
1717675007128,71.0000000000,0.0000000000,3.0000000000,91.0000000000,137.0000000000,19.0000000000
1717675007154,71.0000000000,0.0000000000,3.0000000000,90.0000000000,135.0000000000,19.0000000000
1717675007155,71.0000000000,0.0000000000,3.0000000000,89.0000000000,135.0000000000,19.0000000000
1717675007155,71.0000000000,0.0000000000,3.0000000000,89.0000000000,135.0000000000,19.0000000000
1717675007156,71.0000000000,0.0000000000,3.0000000000,88.0000000000,135.0000000000,19.0000000000
1717675007156,70.0000000000,0.0000000000,3.0000000000,88.0000000000,134.0000000000,19.0000000000
1717675007156,70.0000000000,0.0000000000,3.0000000000,88.0000000000,133.0000000000,19.0000000000
1717675007156,70.0000000000,0.0000000000,3.0000000000,88.0000000000,161.0000000000,19.0000000000
1717675007157,69.0000000000,0.0000000000,4.0000000000,88.0000000000,162.0000000000,19.0000000000
1717675007157,68.0000000000,0.0000000000,3.0000000000,87.0000000000,160.0000000000,24.0000000000
1717675007157,68.0000000000,0.0000000000,4.0000000000,87.0000000000,159.0000000000,25.0000000000
1717675007157,68.0000000000,0.0000000000,4.0000000000,86.0000000000,158.0000000000,25.0000000000
1717675007158,67.0000000000,0.0000000000,4.0000000000,86.0000000000,158.0000000000,25.0000000000
1717675007158,67.0000000000,0.0000000000,4.0000000000,85.0000000000,156.0000000000,24.0000000000
1717675007158,67.0000000000,0.0000000000,4.0000000000,85.0000000000,156.0000000000,24.0000000000
1717675007158,67.0000000000,0.0000000000,3.0000000000,84.0000000000,156.0000000000,24.0000000000
1717675007158,66.0000000000,0.0000000000,3.0000000000,84.0000000000,155.0000000000,24.0000000000
1717675007159,66.0000000000,0.0000000000,3.0000000000,83.0000000000,153.0000000000,24.0000000000
1717675007159,65.0000000000,0.0000000000,3.0000000000,83.0000000000,153.0000000000,24.0000000000
1717675007159,65.0000000000,0.0000000000,3.0000000000,83.0000000000,152.0000000000,24.0000000000
1717675007159,65.0000000000,0.0000000000,3.0000000000,82.0000000000,152.0000000000,24.0000000000
1717675007159,64.0000000000,0.0000000000,3.0000000000,81.0000000000,151.0000000000,24.0000000000
1717675007174,64.0000000000,0.0000000000,3.0000000000,81.0000000000,151.0000000000,24.0000000000
1717675007174,63.0000000000,0.0000000000,4.0000000000,81.0000000000,150.0000000000,24.0000000000
1717675007174,63.0000000000,0.0000000000,4.0000000000,80.0000000000,148.0000000000,24.0000000000
1717675007174,63.0000000000,0.0000000000,4.0000000000,80.0000000000,147.0000000000,24.0000000000
1717675007174,63.0000000000,0.0000000000,4.0000000000,79.0000000000,147.0000000000,23.0000000000
1717675007175,63.0000000000,0.0000000000,4.0000000000,79.0000000000,179.0000000000,23.0000000000
1717675007175,62.0000000000,0.0000000000,3.0000000000,79.0000000000,230.0000000000,23.0000000000
1717675007175,62.0000000000,0.0000000000,4.0000000000,79.0000000000,240.0000000000,23.0000000000
1717675007175,62.0000000000,0.0000000000,3.0000000000,79.0000000000,237.0000000000,23.0000000000
1717675007175,62.0000000000,0.0000000000,4.0000000000,78.0000000000,236.0000000000,22.0000000000
1717675007176,61.0000000000,0.0000000000,3.0000000000,78.0000000000,235.0000000000,23.0000000000
1717675007199,61.0000000000,0.0000000000,4.0000000000,78.0000000000,232.0000000000,22.0000000000
1717675007200,60.0000000000,0.0000000000,3.0000000000,77.0000000000,231.0000000000,22.0000000000
1717675007200,60.0000000000,0.0000000000,3.0000000000,76.0000000000,230.0000000000,22.0000000000
1717675007201,60.0000000000,0.0000000000,4.0000000000,76.0000000000,228.0000000000,22.0000000000
1717675007201,59.0000000000,0.0000000000,3.0000000000,76.0000000000,227.0000000000,22.0000000000
1717675007201,59.0000000000,0.0000000000,3.0000000000,76.0000000000,226.0000000000,22.0000000000
1717675007201,59.0000000000,0.0000000000,3.0000000000,76.0000000000,225.0000000000,22.0000000000
1717675007202,58.0000000000,0.0000000000,4.0000000000,76.0000000000,224.0000000000,21.0000000000
1717675007202,58.0000000000,0.0000000000,3.0000000000,75.0000000000,222.0000000000,21.0000000000
1717675007202,57.0000000000,0.0000000000,3.0000000000,75.0000000000,221.0000000000,21.0000000000
1717675007202,57.0000000000,0.0000000000,3.0000000000,74.0000000000,220.0000000000,20.0000000000
1717675007203,57.0000000000,0.0000000000,3.0000000000,73.0000000000,219.0000000000,40.0000000000
1717675007203,57.0000000000,0.0000000000,3.0000000000,73.0000000000,217.0000000000,39.0000000000
1717675007203,56.0000000000,0.0000000000,3.0000000000,72.0000000000,216.0000000000,39.0000000000
1717675007204,56.0000000000,0.0000000000,3.0000000000,73.0000000000,216.0000000000,39.0000000000
1717675007204,56.0000000000,0.0000000000,3.0000000000,72.0000000000,214.0000000000,39.0000000000
1717675007204,56.0000000000,0.0000000000,3.0000000000,71.0000000000,213.0000000000,39.0000000000
1717675007204,56.0000000000,0.0000000000,3.0000000000,71.0000000000,212.0000000000,39.0000000000
1717675007220,55.0000000000,0.0000000000,3.0000000000,71.0000000000,211.0000000000,39.0000000000
1717675007220,56.0000000000,0.0000000000,3.0000000000,71.0000000000,209.0000000000,39.0000000000
1717675007220,55.0000000000,0.0000000000,3.0000000000,71.0000000000,208.0000000000,38.0000000000
1717675007221,55.0000000000,0.0000000000,3.0000000000,70.0000000000,207.0000000000,37.0000000000
1717675007221,54.0000000000,0.0000000000,3.0000000000,70.0000000000,207.0000000000,38.0000000000
1717675007221,54.0000000000,0.0000000000,3.0000000000,70.0000000000,206.0000000000,38.0000000000
1717675007221,54.0000000000,0.0000000000,3.0000000000,70.0000000000,204.0000000000,36.0000000000
1717675007221,54.0000000000,0.0000000000,3.0000000000,69.0000000000,204.0000000000,37.0000000000
1717675007221,53.0000000000,0.0000000000,3.0000000000,68.0000000000,203.0000000000,36.0000000000
1717675007221,52.0000000000,0.0000000000,6.0000000000,68.0000000000,201.0000000000,36.0000000000
1717675007221,52.0000000000,0.0000000000,5.0000000000,68.0000000000,199.0000000000,36.0000000000
1717675007240,52.0000000000,0.0000000000,6.0000000000,68.0000000000,199.0000000000,36.0000000000
1717675007241,51.0000000000,0.0000000000,6.0000000000,67.0000000000,199.0000000000,35.0000000000
1717675007241,51.0000000000,0.0000000000,5.0000000000,67.0000000000,198.0000000000,36.0000000000
1717675007241,51.0000000000,0.0000000000,5.0000000000,67.0000000000,196.0000000000,35.0000000000
1717675007241,51.0000000000,0.0000000000,5.0000000000,67.0000000000,195.0000000000,35.0000000000
1717675007241,51.0000000000,0.0000000000,5.0000000000,67.0000000000,194.0000000000,35.0000000000
1717675007241,51.0000000000,0.0000000000,5.0000000000,66.0000000000,193.0000000000,35.0000000000
1717675007242,50.0000000000,0.0000000000,4.0000000000,67.0000000000,193.0000000000,34.0000000000
1717675007242,50.0000000000,0.0000000000,5.0000000000,71.0000000000,192.0000000000,35.0000000000
1717675007242,50.0000000000,0.0000000000,5.0000000000,71.0000000000,191.0000000000,39.0000000000
1717675007242,49.0000000000,0.0000000000,4.0000000000,71.0000000000,190.0000000000,39.0000000000
1717675007242,49.0000000000,0.0000000000,5.0000000000,70.0000000000,188.0000000000,39.0000000000
1717675007242,49.0000000000,0.0000000000,4.0000000000,70.0000000000,188.0000000000,39.0000000000
1717675007256,49.0000000000,0.0000000000,4.0000000000,70.0000000000,187.0000000000,39.0000000000
1717675007256,48.0000000000,0.0000000000,4.0000000000,70.0000000000,186.0000000000,39.0000000000
1717675007256,48.0000000000,0.0000000000,4.0000000000,69.0000000000,185.0000000000,39.0000000000
1717675007256,48.0000000000,0.0000000000,4.0000000000,68.0000000000,184.0000000000,38.0000000000
1717675007256,48.0000000000,0.0000000000,4.0000000000,68.0000000000,184.0000000000,39.0000000000
1717675007257,48.0000000000,0.0000000000,4.0000000000,68.0000000000,183.0000000000,38.0000000000
1717675007257,48.0000000000,0.0000000000,3.0000000000,67.0000000000,182.0000000000,38.0000000000
1717675007257,47.0000000000,0.0000000000,4.0000000000,67.0000000000,181.0000000000,38.0000000000
1717675007257,47.0000000000,0.0000000000,4.0000000000,67.0000000000,180.0000000000,37.0000000000
1717675007257,47.0000000000,0.0000000000,6.0000000000,67.0000000000,179.0000000000,38.0000000000
1717675007257,47.0000000000,0.0000000000,6.0000000000,66.0000000000,179.0000000000,37.0000000000
1717675007286,46.0000000000,0.0000000000,5.0000000000,66.0000000000,177.0000000000,36.0000000000
1717675007287,46.0000000000,0.0000000000,4.0000000000,65.0000000000,177.0000000000,36.0000000000
1717675007288,46.0000000000,0.0000000000,4.0000000000,65.0000000000,176.0000000000,36.0000000000
1717675007288,46.0000000000,0.0000000000,5.0000000000,65.0000000000,175.0000000000,36.0000000000
1717675007288,45.0000000000,0.0000000000,5.0000000000,65.0000000000,174.0000000000,35.0000000000
1717675007288,45.0000000000,0.0000000000,5.0000000000,64.0000000000,174.0000000000,35.0000000000
1717675007289,44.0000000000,0.0000000000,5.0000000000,63.0000000000,172.0000000000,35.0000000000
1717675007289,45.0000000000,0.0000000000,5.0000000000,63.0000000000,172.0000000000,35.0000000000
1717675007289,44.0000000000,0.0000000000,5.0000000000,63.0000000000,171.0000000000,35.0000000000
1717675007289,44.0000000000,0.0000000000,4.0000000000,63.0000000000,171.0000000000,35.0000000000
1717675007290,44.0000000000,0.0000000000,4.0000000000,63.0000000000,169.0000000000,35.0000000000
1717675007290,44.0000000000,0.0000000000,4.0000000000,62.0000000000,168.0000000000,35.0000000000
1717675007290,43.0000000000,0.0000000000,4.0000000000,62.0000000000,167.0000000000,35.0000000000
1717675007290,44.0000000000,0.0000000000,4.0000000000,62.0000000000,167.0000000000,34.0000000000
1717675007291,43.0000000000,0.0000000000,5.0000000000,62.0000000000,167.0000000000,34.0000000000
1717675007291,43.0000000000,0.0000000000,5.0000000000,62.0000000000,166.0000000000,34.0000000000
1717675007291,43.0000000000,0.0000000000,5.0000000000,61.0000000000,165.0000000000,33.0000000000
1717675007291,42.0000000000,0.0000000000,5.0000000000,61.0000000000,163.0000000000,34.0000000000
1717675007292,43.0000000000,0.0000000000,5.0000000000,61.0000000000,164.0000000000,33.0000000000
1717675007293,42.0000000000,0.0000000000,5.0000000000,60.0000000000,163.0000000000,33.0000000000
1717675007293,42.0000000000,0.0000000000,4.0000000000,60.0000000000,163.0000000000,33.0000000000
1717675007293,42.0000000000,0.0000000000,4.0000000000,60.0000000000,161.0000000000,33.0000000000
1717675007294,41.0000000000,0.0000000000,4.0000000000,60.0000000000,161.0000000000,32.0000000000
1717675007294,41.0000000000,0.0000000000,5.0000000000,59.0000000000,160.0000000000,32.0000000000
1717675007327,41.0000000000,0.0000000000,4.0000000000,59.0000000000,164.0000000000,66.0000000000
1717675007328,40.0000000000,0.0000000000,4.0000000000,59.0000000000,163.0000000000,65.0000000000
1717675007328,39.0000000000,0.0000000000,4.0000000000,59.0000000000,162.0000000000,64.0000000000
1717675007329,39.0000000000,0.0000000000,5.0000000000,58.0000000000,161.0000000000,63.0000000000
1717675007329,40.0000000000,0.0000000000,4.0000000000,57.0000000000,161.0000000000,63.0000000000
1717675007329,40.0000000000,0.0000000000,4.0000000000,57.0000000000,159.0000000000,63.0000000000
1717675007329,39.0000000000,0.0000000000,5.0000000000,57.0000000000,159.0000000000,63.0000000000
1717675007330,39.0000000000,0.0000000000,4.0000000000,57.0000000000,158.0000000000,63.0000000000
1717675007330,39.0000000000,0.0000000000,4.0000000000,57.0000000000,158.0000000000,62.0000000000
1717675007330,39.0000000000,0.0000000000,4.0000000000,56.0000000000,187.0000000000,62.0000000000
1717675007330,39.0000000000,0.0000000000,4.0000000000,56.0000000000,185.0000000000,62.0000000000
1717675007331,39.0000000000,0.0000000000,3.0000000000,56.0000000000,184.0000000000,61.0000000000
1717675007331,38.0000000000,0.0000000000,3.0000000000,56.0000000000,184.0000000000,61.0000000000
1717675007331,39.0000000000,0.0000000000,3.0000000000,56.0000000000,183.0000000000,61.0000000000
1717675007331,38.0000000000,0.0000000000,4.0000000000,56.0000000000,182.0000000000,60.0000000000
1717675007331,38.0000000000,0.0000000000,6.0000000000,56.0000000000,180.0000000000,60.0000000000
1717675007332,38.0000000000,0.0000000000,7.0000000000,56.0000000000,179.0000000000,60.0000000000
1717675007332,38.0000000000,0.0000000000,7.0000000000,55.0000000000,178.0000000000,59.0000000000
1717675007332,38.0000000000,0.0000000000,7.0000000000,90.0000000000,177.0000000000,59.0000000000
1717675007332,37.0000000000,0.0000000000,7.0000000000,89.0000000000,176.0000000000,59.0000000000
1717675007333,37.0000000000,0.0000000000,7.0000000000,88.0000000000,176.0000000000,59.0000000000
1717675007333,37.0000000000,0.0000000000,7.0000000000,88.0000000000,174.0000000000,124.0000000000
1717675007333,36.0000000000,0.0000000000,7.0000000000,87.0000000000,174.0000000000,121.0000000000
1717675007334,36.0000000000,0.0000000000,7.0000000000,87.0000000000,172.0000000000,121.0000000000
1717675007362,36.0000000000,0.0000000000,7.0000000000,86.0000000000,172.0000000000,120.0000000000
1717675007363,36.0000000000,1.0000000000,33.0000000000,123.0000000000,171.0000000000,120.0000000000
1717675007363,36.0000000000,1.0000000000,35.0000000000,121.0000000000,215.0000000000,119.0000000000
1717675007363,35.0000000000,1.0000000000,35.0000000000,120.0000000000,298.0000000000,118.0000000000
1717675007364,35.0000000000,1.0000000000,35.0000000000,119.0000000000,295.0000000000,117.0000000000
1717675007364,35.0000000000,1.0000000000,34.0000000000,118.0000000000,292.0000000000,116.0000000000
1717675007364,35.0000000000,1.0000000000,33.0000000000,116.0000000000,290.0000000000,115.0000000000
1717675007364,35.0000000000,1.0000000000,33.0000000000,116.0000000000,287.0000000000,114.0000000000
1717675007364,35.0000000000,1.0000000000,33.0000000000,115.0000000000,286.0000000000,113.0000000000
1717675007364,34.0000000000,1.0000000000,33.0000000000,115.0000000000,284.0000000000,113.0000000000
1717675007364,34.0000000000,1.0000000000,33.0000000000,188.0000000000,319.0000000000,112.0000000000
1717675007364,33.0000000000,19.0000000000,33.0000000000,186.0000000000,335.0000000000,112.0000000000
1717675007365,33.0000000000,19.0000000000,32.0000000000,184.0000000000,333.0000000000,111.0000000000
1717675007365,33.0000000000,19.0000000000,31.0000000000,183.0000000000,331.0000000000,110.0000000000
1717675007365,33.0000000000,19.0000000000,31.0000000000,182.0000000000,327.0000000000,109.0000000000
1717675007365,33.0000000000,19.0000000000,39.0000000000,180.0000000000,354.0000000000,109.0000000000
1717675007365,33.0000000000,19.0000000000,39.0000000000,179.0000000000,351.0000000000,108.0000000000
1717675007365,33.0000000000,19.0000000000,39.0000000000,177.0000000000,348.0000000000,108.0000000000
1717675007380,32.0000000000,19.0000000000,39.0000000000,176.0000000000,384.0000000000,106.0000000000
1717675007381,32.0000000000,19.0000000000,39.0000000000,175.0000000000,393.0000000000,105.0000000000
1717675007381,31.0000000000,18.0000000000,38.0000000000,180.0000000000,389.0000000000,105.0000000000
1717675007381,31.0000000000,18.0000000000,38.0000000000,179.0000000000,386.0000000000,153.0000000000
1717675007382,31.0000000000,18.0000000000,38.0000000000,177.0000000000,384.0000000000,210.0000000000
1717675007382,31.0000000000,17.0000000000,37.0000000000,176.0000000000,380.0000000000,207.0000000000
1717675007382,31.0000000000,17.0000000000,39.0000000000,176.0000000000,377.0000000000,206.0000000000
1717675007382,31.0000000000,19.0000000000,39.0000000000,174.0000000000,374.0000000000,204.0000000000
1717675007382,31.0000000000,19.0000000000,39.0000000000,173.0000000000,371.0000000000,203.0000000000
1717675007402,31.0000000000,20.0000000000,44.0000000000,172.0000000000,368.0000000000,201.0000000000
1717675007402,31.0000000000,20.0000000000,43.0000000000,171.0000000000,441.0000000000,199.0000000000
1717675007402,30.0000000000,19.0000000000,43.0000000000,169.0000000000,437.0000000000,199.0000000000
1717675007403,30.0000000000,19.0000000000,43.0000000000,255.0000000000,433.0000000000,196.0000000000
1717675007403,30.0000000000,19.0000000000,43.0000000000,253.0000000000,429.0000000000,195.0000000000
1717675007403,30.0000000000,19.0000000000,42.0000000000,252.0000000000,425.0000000000,195.0000000000
1717675007403,30.0000000000,22.0000000000,71.0000000000,249.0000000000,422.0000000000,193.0000000000
1717675007403,30.0000000000,22.0000000000,71.0000000000,247.0000000000,419.0000000000,192.0000000000
1717675007403,30.0000000000,20.0000000000,71.0000000000,245.0000000000,415.0000000000,231.0000000000
1717675007404,29.0000000000,21.0000000000,70.0000000000,243.0000000000,412.0000000000,235.0000000000
1717675007404,28.0000000000,20.0000000000,70.0000000000,242.0000000000,408.0000000000,232.0000000000
1717675007404,29.0000000000,20.0000000000,69.0000000000,240.0000000000,406.0000000000,231.0000000000
1717675007404,28.0000000000,20.0000000000,69.0000000000,238.0000000000,403.0000000000,229.0000000000
1717675007446,28.0000000000,19.0000000000,68.0000000000,237.0000000000,399.0000000000,227.0000000000
1717675007446,28.0000000000,20.0000000000,67.0000000000,235.0000000000,396.0000000000,225.0000000000
1717675007447,28.0000000000,19.0000000000,67.0000000000,233.0000000000,393.0000000000,224.0000000000
1717675007447,28.0000000000,50.0000000000,67.0000000000,231.0000000000,391.0000000000,223.0000000000
1717675007447,28.0000000000,144.0000000000,67.0000000000,230.0000000000,387.0000000000,221.0000000000
1717675007447,28.0000000000,142.0000000000,75.0000000000,228.0000000000,385.0000000000,220.0000000000
1717675007447,28.0000000000,141.0000000000,74.0000000000,227.0000000000,382.0000000000,217.0000000000
1717675007448,28.0000000000,140.0000000000,73.0000000000,225.0000000000,379.0000000000,216.0000000000
1717675007448,28.0000000000,139.0000000000,73.0000000000,224.0000000000,376.0000000000,280.0000000000
1717675007448,34.0000000000,137.0000000000,71.0000000000,223.0000000000,373.0000000000,307.0000000000
1717675007448,78.0000000000,136.0000000000,71.0000000000,221.0000000000,370.0000000000,304.0000000000
1717675007449,76.0000000000,199.0000000000,71.0000000000,219.0000000000,368.0000000000,301.0000000000
1717675007449,76.0000000000,196.0000000000,71.0000000000,217.0000000000,364.0000000000,299.0000000000
1717675007449,75.0000000000,195.0000000000,70.0000000000,216.0000000000,363.0000000000,295.0000000000
1717675007449,75.0000000000,193.0000000000,70.0000000000,215.0000000000,427.0000000000,294.0000000000
1717675007450,73.0000000000,191.0000000000,69.0000000000,213.0000000000,504.0000000000,291.0000000000
1717675007450,73.0000000000,190.0000000000,68.0000000000,212.0000000000,583.0000000000,289.0000000000
1717675007450,71.0000000000,188.0000000000,67.0000000000,211.0000000000,575.0000000000,287.0000000000
1717675007450,71.0000000000,188.0000000000,67.0000000000,209.0000000000,568.0000000000,285.0000000000
1717675007450,71.0000000000,186.0000000000,67.0000000000,299.0000000000,563.0000000000,283.0000000000
1717675007451,71.0000000000,184.0000000000,67.0000000000,323.0000000000,593.0000000000,280.0000000000
1717675007451,70.0000000000,183.0000000000,66.0000000000,319.0000000000,585.0000000000,280.0000000000
1717675007451,70.0000000000,182.0000000000,66.0000000000,318.0000000000,579.0000000000,278.0000000000
1717675007468,70.0000000000,180.0000000000,65.0000000000,315.0000000000,574.0000000000,275.0000000000
1717675007468,69.0000000000,179.0000000000,65.0000000000,312.0000000000,568.0000000000,273.0000000000
1717675007468,68.0000000000,179.0000000000,64.0000000000,375.0000000000,562.0000000000,271.0000000000
1717675007468,68.0000000000,177.0000000000,64.0000000000,370.0000000000,556.0000000000,270.0000000000
1717675007468,67.0000000000,176.0000000000,72.0000000000,367.0000000000,551.0000000000,268.0000000000
1717675007469,67.0000000000,175.0000000000,71.0000000000,363.0000000000,547.0000000000,265.0000000000
1717675007469,67.0000000000,174.0000000000,71.0000000000,359.0000000000,542.0000000000,263.0000000000
1717675007469,66.0000000000,172.0000000000,71.0000000000,460.0000000000,537.0000000000,262.0000000000
1717675007469,66.0000000000,172.0000000000,71.0000000000,468.0000000000,532.0000000000,332.0000000000
1717675007469,65.0000000000,170.0000000000,71.0000000000,463.0000000000,527.0000000000,345.0000000000
1717675007469,65.0000000000,169.0000000000,70.0000000000,459.0000000000,521.0000000000,343.0000000000
1717675007484,65.0000000000,167.0000000000,70.0000000000,454.0000000000,518.0000000000,339.0000000000
1717675007485,63.0000000000,167.0000000000,69.0000000000,451.0000000000,513.0000000000,337.0000000000
1717675007486,63.0000000000,166.0000000000,68.0000000000,447.0000000000,508.0000000000,335.0000000000
1717675007486,63.0000000000,164.0000000000,67.0000000000,443.0000000000,504.0000000000,332.0000000000
1717675007486,63.0000000000,163.0000000000,67.0000000000,439.0000000000,499.0000000000,329.0000000000
1717675007486,63.0000000000,162.0000000000,67.0000000000,435.0000000000,495.0000000000,327.0000000000
1717675007487,62.0000000000,161.0000000000,67.0000000000,431.0000000000,491.0000000000,323.0000000000
1717675007487,62.0000000000,159.0000000000,66.0000000000,427.0000000000,487.0000000000,321.0000000000
1717675007515,61.0000000000,159.0000000000,65.0000000000,423.0000000000,483.0000000000,319.0000000000
1717675007517,61.0000000000,158.0000000000,65.0000000000,419.0000000000,480.0000000000,317.0000000000
1717675007517,60.0000000000,158.0000000000,65.0000000000,416.0000000000,476.0000000000,333.0000000000
1717675007518,60.0000000000,156.0000000000,63.0000000000,413.0000000000,472.0000000000,357.0000000000
1717675007518,60.0000000000,155.0000000000,63.0000000000,409.0000000000,540.0000000000,353.0000000000
1717675007518,59.0000000000,155.0000000000,63.0000000000,406.0000000000,543.0000000000,351.0000000000
1717675007519,59.0000000000,153.0000000000,63.0000000000,403.0000000000,539.0000000000,348.0000000000
1717675007519,59.0000000000,152.0000000000,63.0000000000,399.0000000000,533.0000000000,345.0000000000
1717675007519,57.0000000000,152.0000000000,62.0000000000,397.0000000000,527.0000000000,343.0000000000
1717675007519,57.0000000000,213.0000000000,62.0000000000,393.0000000000,523.0000000000,339.0000000000
1717675007520,57.0000000000,211.0000000000,62.0000000000,391.0000000000,518.0000000000,337.0000000000
1717675007520,57.0000000000,209.0000000000,61.0000000000,387.0000000000,513.0000000000,335.0000000000
1717675007520,56.0000000000,207.0000000000,61.0000000000,385.0000000000,508.0000000000,332.0000000000
1717675007520,56.0000000000,206.0000000000,60.0000000000,382.0000000000,504.0000000000,329.0000000000
1717675007521,56.0000000000,204.0000000000,60.0000000000,379.0000000000,499.0000000000,327.0000000000
1717675007521,56.0000000000,203.0000000000,60.0000000000,376.0000000000,496.0000000000,324.0000000000
1717675007521,55.0000000000,201.0000000000,59.0000000000,373.0000000000,492.0000000000,322.0000000000
1717675007551,55.0000000000,199.0000000000,59.0000000000,370.0000000000,487.0000000000,319.0000000000
1717675007551,55.0000000000,198.0000000000,59.0000000000,368.0000000000,483.0000000000,317.0000000000
1717675007551,54.0000000000,196.0000000000,57.0000000000,364.0000000000,479.0000000000,315.0000000000
1717675007552,54.0000000000,195.0000000000,57.0000000000,363.0000000000,475.0000000000,313.0000000000
1717675007552,54.0000000000,194.0000000000,57.0000000000,359.0000000000,471.0000000000,311.0000000000
1717675007552,53.0000000000,193.0000000000,57.0000000000,358.0000000000,467.0000000000,308.0000000000
1717675007552,52.0000000000,192.0000000000,56.0000000000,355.0000000000,463.0000000000,377.0000000000
1717675007552,52.0000000000,190.0000000000,56.0000000000,352.0000000000,460.0000000000,423.0000000000
1717675007552,51.0000000000,189.0000000000,58.0000000000,350.0000000000,455.0000000000,419.0000000000
1717675007552,51.0000000000,188.0000000000,57.0000000000,348.0000000000,451.0000000000,415.0000000000
1717675007553,51.0000000000,187.0000000000,57.0000000000,344.0000000000,454.0000000000,412.0000000000
1717675007553,51.0000000000,185.0000000000,57.0000000000,342.0000000000,583.0000000000,408.0000000000
1717675007553,51.0000000000,184.0000000000,56.0000000000,340.0000000000,577.0000000000,403.0000000000
1717675007553,51.0000000000,183.0000000000,56.0000000000,337.0000000000,571.0000000000,448.0000000000
1717675007553,50.0000000000,182.0000000000,56.0000000000,335.0000000000,566.0000000000,578.0000000000
1717675007553,49.0000000000,180.0000000000,56.0000000000,333.0000000000,560.0000000000,571.0000000000
1717675007553,49.0000000000,179.0000000000,55.0000000000,331.0000000000,555.0000000000,564.0000000000
1717675007570,49.0000000000,178.0000000000,55.0000000000,327.0000000000,548.0000000000,558.0000000000
1717675007570,49.0000000000,176.0000000000,54.0000000000,326.0000000000,543.0000000000,552.0000000000
1717675007571,48.0000000000,176.0000000000,54.0000000000,324.0000000000,537.0000000000,547.0000000000
1717675007571,48.0000000000,175.0000000000,54.0000000000,321.0000000000,532.0000000000,543.0000000000
1717675007571,48.0000000000,174.0000000000,52.0000000000,319.0000000000,527.0000000000,537.0000000000
1717675007571,48.0000000000,172.0000000000,53.0000000000,318.0000000000,524.0000000000,532.0000000000
1717675007571,88.0000000000,172.0000000000,52.0000000000,316.0000000000,519.0000000000,527.0000000000
1717675007571,87.0000000000,171.0000000000,51.0000000000,313.0000000000,514.0000000000,521.0000000000
1717675007571,86.0000000000,169.0000000000,52.0000000000,311.0000000000,509.0000000000,517.0000000000
1717675007572,84.0000000000,167.0000000000,51.0000000000,310.0000000000,505.0000000000,512.0000000000
1717675007588,84.0000000000,167.0000000000,51.0000000000,307.0000000000,502.0000000000,508.0000000000
1717675007589,83.0000000000,166.0000000000,51.0000000000,305.0000000000,497.0000000000,504.0000000000
1717675007590,83.0000000000,164.0000000000,50.0000000000,303.0000000000,492.0000000000,499.0000000000
1717675007590,82.0000000000,163.0000000000,50.0000000000,301.0000000000,487.0000000000,494.0000000000
1717675007590,82.0000000000,163.0000000000,50.0000000000,299.0000000000,483.0000000000,489.0000000000
1717675007590,81.0000000000,162.0000000000,50.0000000000,296.0000000000,480.0000000000,486.0000000000
1717675007591,79.0000000000,161.0000000000,49.0000000000,295.0000000000,476.0000000000,483.0000000000
1717675007591,79.0000000000,160.0000000000,49.0000000000,294.0000000000,472.0000000000,479.0000000000
1717675007612,79.0000000000,159.0000000000,49.0000000000,291.0000000000,468.0000000000,475.0000000000
1717675007612,79.0000000000,158.0000000000,48.0000000000,289.0000000000,464.0000000000,471.0000000000
1717675007612,78.0000000000,157.0000000000,48.0000000000,287.0000000000,460.0000000000,467.0000000000
1717675007612,78.0000000000,156.0000000000,51.0000000000,286.0000000000,457.0000000000,463.0000000000
1717675007613,77.0000000000,155.0000000000,51.0000000000,284.0000000000,453.0000000000,460.0000000000
1717675007613,76.0000000000,155.0000000000,51.0000000000,281.0000000000,450.0000000000,455.0000000000
1717675007613,76.0000000000,153.0000000000,50.0000000000,280.0000000000,447.0000000000,451.0000000000
1717675007613,75.0000000000,152.0000000000,50.0000000000,278.0000000000,443.0000000000,448.0000000000
1717675007613,75.0000000000,152.0000000000,50.0000000000,276.0000000000,440.0000000000,537.0000000000
1717675007613,80.0000000000,151.0000000000,49.0000000000,340.0000000000,436.0000000000,531.0000000000
1717675007613,79.0000000000,149.0000000000,49.0000000000,337.0000000000,433.0000000000,525.0000000000
1717675007613,79.0000000000,148.0000000000,48.0000000000,334.0000000000,430.0000000000,519.0000000000
1717675007613,79.0000000000,147.0000000000,48.0000000000,332.0000000000,426.0000000000,516.0000000000
1717675007628,78.0000000000,147.0000000000,48.0000000000,329.0000000000,423.0000000000,511.0000000000
1717675007629,78.0000000000,146.0000000000,48.0000000000,327.0000000000,419.0000000000,505.0000000000
1717675007629,76.0000000000,145.0000000000,48.0000000000,324.0000000000,416.0000000000,501.0000000000
1717675007629,76.0000000000,144.0000000000,48.0000000000,321.0000000000,414.0000000000,496.0000000000
1717675007629,76.0000000000,143.0000000000,48.0000000000,319.0000000000,445.0000000000,492.0000000000
1717675007629,76.0000000000,143.0000000000,47.0000000000,316.0000000000,453.0000000000,487.0000000000
1717675007629,75.0000000000,142.0000000000,46.0000000000,313.0000000000,450.0000000000,483.0000000000
1717675007630,75.0000000000,141.0000000000,46.0000000000,312.0000000000,446.0000000000,479.0000000000
1717675007651,73.0000000000,140.0000000000,46.0000000000,309.0000000000,441.0000000000,475.0000000000
1717675007652,73.0000000000,140.0000000000,46.0000000000,307.0000000000,550.0000000000,472.0000000000
1717675007653,73.0000000000,139.0000000000,46.0000000000,304.0000000000,624.0000000000,467.0000000000
1717675007653,71.0000000000,137.0000000000,46.0000000000,302.0000000000,615.0000000000,463.0000000000
1717675007653,71.0000000000,135.0000000000,45.0000000000,300.0000000000,609.0000000000,459.0000000000
1717675007653,71.0000000000,135.0000000000,56.0000000000,297.0000000000,603.0000000000,455.0000000000
1717675007653,71.0000000000,135.0000000000,55.0000000000,295.0000000000,595.0000000000,451.0000000000
1717675007654,71.0000000000,134.0000000000,54.0000000000,294.0000000000,590.0000000000,448.0000000000
1717675007654,70.0000000000,133.0000000000,54.0000000000,291.0000000000,583.0000000000,444.0000000000
1717675007654,69.0000000000,133.0000000000,54.0000000000,289.0000000000,578.0000000000,441.0000000000
1717675007654,69.0000000000,132.0000000000,53.0000000000,287.0000000000,573.0000000000,438.0000000000
1717675007655,68.0000000000,131.0000000000,53.0000000000,286.0000000000,568.0000000000,434.0000000000
1717675007655,68.0000000000,131.0000000000,52.0000000000,284.0000000000,561.0000000000,431.0000000000
1717675007676,67.0000000000,129.0000000000,52.0000000000,281.0000000000,558.0000000000,428.0000000000
1717675007677,67.0000000000,129.0000000000,51.0000000000,280.0000000000,551.0000000000,423.0000000000
1717675007677,66.0000000000,127.0000000000,51.0000000000,278.0000000000,547.0000000000,420.0000000000
1717675007677,67.0000000000,127.0000000000,51.0000000000,275.0000000000,542.0000000000,417.0000000000
1717675007677,65.0000000000,127.0000000000,51.0000000000,273.0000000000,536.0000000000,415.0000000000
1717675007677,65.0000000000,126.0000000000,51.0000000000,271.0000000000,532.0000000000,412.0000000000
1717675007677,65.0000000000,125.0000000000,49.0000000000,270.0000000000,527.0000000000,408.0000000000
1717675007677,64.0000000000,124.0000000000,49.0000000000,300.0000000000,523.0000000000,406.0000000000
1717675007677,63.0000000000,124.0000000000,49.0000000000,297.0000000000,518.0000000000,403.0000000000
1717675007678,63.0000000000,123.0000000000,49.0000000000,295.0000000000,513.0000000000,483.0000000000
1717675007691,63.0000000000,122.0000000000,98.0000000000,292.0000000000,508.0000000000,477.0000000000
1717675007693,63.0000000000,121.0000000000,97.0000000000,291.0000000000,504.0000000000,473.0000000000
1717675007693,63.0000000000,121.0000000000,96.0000000000,287.0000000000,499.0000000000,468.0000000000
1717675007694,62.0000000000,120.0000000000,96.0000000000,287.0000000000,496.0000000000,670.0000000000
1717675007694,65.0000000000,120.0000000000,95.0000000000,284.0000000000,492.0000000000,659.0000000000
1717675007694,66.0000000000,119.0000000000,94.0000000000,281.0000000000,488.0000000000,652.0000000000
1717675007694,65.0000000000,118.0000000000,92.0000000000,280.0000000000,484.0000000000,644.0000000000
1717675007695,65.0000000000,117.0000000000,92.0000000000,278.0000000000,480.0000000000,637.0000000000
1717675007695,64.0000000000,117.0000000000,92.0000000000,275.0000000000,476.0000000000,630.0000000000
1717675007695,63.0000000000,116.0000000000,92.0000000000,324.0000000000,472.0000000000,624.0000000000
1717675007695,63.0000000000,115.0000000000,91.0000000000,321.0000000000,468.0000000000,616.0000000000
1717675007712,63.0000000000,115.0000000000,90.0000000000,319.0000000000,465.0000000000,611.0000000000
1717675007712,62.0000000000,114.0000000000,89.0000000000,316.0000000000,461.0000000000,606.0000000000
1717675007712,62.0000000000,113.0000000000,89.0000000000,313.0000000000,457.0000000000,600.0000000000
1717675007713,62.0000000000,113.0000000000,88.0000000000,312.0000000000,454.0000000000,593.0000000000
1717675007713,62.0000000000,112.0000000000,88.0000000000,308.0000000000,450.0000000000,588.0000000000
1717675007713,61.0000000000,112.0000000000,88.0000000000,306.0000000000,455.0000000000,582.0000000000
1717675007713,60.0000000000,111.0000000000,87.0000000000,304.0000000000,616.0000000000,575.0000000000
1717675007713,60.0000000000,111.0000000000,86.0000000000,302.0000000000,634.0000000000,570.0000000000
1717675007726,60.0000000000,110.0000000000,85.0000000000,300.0000000000,627.0000000000,564.0000000000
1717675007727,59.0000000000,109.0000000000,85.0000000000,297.0000000000,620.0000000000,560.0000000000
1717675007729,59.0000000000,108.0000000000,84.0000000000,295.0000000000,612.0000000000,554.0000000000
1717675007729,59.0000000000,108.0000000000,84.0000000000,292.0000000000,606.0000000000,549.0000000000
1717675007729,58.0000000000,107.0000000000,83.0000000000,291.0000000000,600.0000000000,543.0000000000
1717675007729,57.0000000000,107.0000000000,83.0000000000,288.0000000000,594.0000000000,732.0000000000
1717675007730,173.0000000000,106.0000000000,83.0000000000,286.0000000000,588.0000000000,719.0000000000
1717675007730,171.0000000000,105.0000000000,82.0000000000,284.0000000000,582.0000000000,710.0000000000
1717675007754,168.0000000000,104.0000000000,81.0000000000,281.0000000000,575.0000000000,701.0000000000
1717675007756,167.0000000000,127.0000000000,81.0000000000,280.0000000000,571.0000000000,692.0000000000
1717675007756,166.0000000000,163.0000000000,79.0000000000,336.0000000000,564.0000000000,685.0000000000
1717675007756,164.0000000000,161.0000000000,79.0000000000,371.0000000000,559.0000000000,678.0000000000
1717675007756,163.0000000000,160.0000000000,79.0000000000,367.0000000000,553.0000000000,670.0000000000
1717675007757,161.0000000000,158.0000000000,79.0000000000,364.0000000000,547.0000000000,663.0000000000
1717675007757,160.0000000000,157.0000000000,78.0000000000,359.0000000000,543.0000000000,655.0000000000
1717675007757,159.0000000000,156.0000000000,78.0000000000,356.0000000000,537.0000000000,723.0000000000
1717675007757,159.0000000000,155.0000000000,77.0000000000,353.0000000000,532.0000000000,713.0000000000
1717675007758,159.0000000000,153.0000000000,77.0000000000,351.0000000000,527.0000000000,704.0000000000
1717675007758,158.0000000000,152.0000000000,76.0000000000,348.0000000000,524.0000000000,696.0000000000
1717675007758,156.0000000000,152.0000000000,75.0000000000,345.0000000000,519.0000000000,688.0000000000
1717675007759,156.0000000000,151.0000000000,75.0000000000,342.0000000000,513.0000000000,680.0000000000
1717675007759,155.0000000000,150.0000000000,75.0000000000,339.0000000000,509.0000000000,673.0000000000
1717675007772,153.0000000000,148.0000000000,75.0000000000,337.0000000000,504.0000000000,665.0000000000
1717675007773,152.0000000000,147.0000000000,75.0000000000,335.0000000000,499.0000000000,658.0000000000
1717675007773,152.0000000000,146.0000000000,73.0000000000,332.0000000000,496.0000000000,651.0000000000
1717675007773,150.0000000000,145.0000000000,73.0000000000,328.0000000000,492.0000000000,643.0000000000
1717675007773,149.0000000000,144.0000000000,73.0000000000,327.0000000000,487.0000000000,636.0000000000
1717675007773,147.0000000000,143.0000000000,72.0000000000,323.0000000000,483.0000000000,629.0000000000
1717675007773,147.0000000000,143.0000000000,71.0000000000,321.0000000000,480.0000000000,623.0000000000
1717675007773,146.0000000000,142.0000000000,71.0000000000,319.0000000000,476.0000000000,616.0000000000
1717675007787,145.0000000000,141.0000000000,71.0000000000,316.0000000000,471.0000000000,610.0000000000
1717675007788,143.0000000000,140.0000000000,71.0000000000,314.0000000000,467.0000000000,604.0000000000
1717675007788,143.0000000000,139.0000000000,71.0000000000,312.0000000000,463.0000000000,598.0000000000
1717675007788,142.0000000000,137.0000000000,70.0000000000,310.0000000000,460.0000000000,591.0000000000
1717675007789,141.0000000000,135.0000000000,70.0000000000,307.0000000000,455.0000000000,587.0000000000
1717675007789,140.0000000000,135.0000000000,69.0000000000,305.0000000000,452.0000000000,579.0000000000
1717675007789,139.0000000000,135.0000000000,68.0000000000,302.0000000000,448.0000000000,575.0000000000
1717675007789,139.0000000000,134.0000000000,68.0000000000,300.0000000000,445.0000000000,568.0000000000
1717675007790,137.0000000000,135.0000000000,67.0000000000,299.0000000000,441.0000000000,563.0000000000
1717675007815,136.0000000000,133.0000000000,67.0000000000,295.0000000000,438.0000000000,559.0000000000
1717675007816,135.0000000000,132.0000000000,67.0000000000,295.0000000000,433.0000000000,553.0000000000
1717675007817,135.0000000000,131.0000000000,67.0000000000,293.0000000000,431.0000000000,548.0000000000
1717675007817,134.0000000000,131.0000000000,66.0000000000,291.0000000000,427.0000000000,543.0000000000
1717675007817,132.0000000000,129.0000000000,65.0000000000,289.0000000000,438.0000000000,539.0000000000
1717675007818,132.0000000000,129.0000000000,65.0000000000,287.0000000000,468.0000000000,534.0000000000
1717675007818,131.0000000000,127.0000000000,65.0000000000,284.0000000000,463.0000000000,675.0000000000
1717675007818,189.0000000000,127.0000000000,63.0000000000,283.0000000000,460.0000000000,667.0000000000
1717675007818,187.0000000000,127.0000000000,63.0000000000,280.0000000000,455.0000000000,659.0000000000
1717675007819,185.0000000000,126.0000000000,63.0000000000,279.0000000000,451.0000000000,696.0000000000
1717675007819,184.0000000000,125.0000000000,63.0000000000,276.0000000000,448.0000000000,688.0000000000
1717675007819,183.0000000000,124.0000000000,63.0000000000,275.0000000000,443.0000000000,679.0000000000
1717675007820,181.0000000000,124.0000000000,62.0000000000,273.0000000000,438.0000000000,671.0000000000
1717675007820,179.0000000000,123.0000000000,62.0000000000,271.0000000000,435.0000000000,664.0000000000
1717675007837,178.0000000000,122.0000000000,62.0000000000,269.0000000000,431.0000000000,657.0000000000
1717675007837,177.0000000000,121.0000000000,61.0000000000,268.0000000000,428.0000000000,649.0000000000
1717675007837,182.0000000000,120.0000000000,61.0000000000,265.0000000000,423.0000000000,641.0000000000
1717675007837,180.0000000000,120.0000000000,60.0000000000,263.0000000000,420.0000000000,634.0000000000
1717675007838,179.0000000000,119.0000000000,60.0000000000,262.0000000000,417.0000000000,627.0000000000
1717675007838,178.0000000000,118.0000000000,60.0000000000,260.0000000000,415.0000000000,621.0000000000
1717675007838,176.0000000000,118.0000000000,60.0000000000,259.0000000000,412.0000000000,615.0000000000
1717675007838,175.0000000000,116.0000000000,59.0000000000,257.0000000000,408.0000000000,608.0000000000
1717675007838,174.0000000000,115.0000000000,59.0000000000,255.0000000000,404.0000000000,602.0000000000
1717675007838,173.0000000000,115.0000000000,57.0000000000,254.0000000000,401.0000000000,596.0000000000
1717675007854,171.0000000000,115.0000000000,57.0000000000,252.0000000000,399.0000000000,590.0000000000
1717675007855,169.0000000000,113.0000000000,69.0000000000,252.0000000000,416.0000000000,584.0000000000
1717675007855,179.0000000000,130.0000000000,68.0000000000,248.0000000000,412.0000000000,577.0000000000
1717675007856,179.0000000000,129.0000000000,67.0000000000,248.0000000000,409.0000000000,572.0000000000
1717675007856,178.0000000000,127.0000000000,67.0000000000,294.0000000000,406.0000000000,567.0000000000
1717675007856,176.0000000000,127.0000000000,67.0000000000,291.0000000000,463.0000000000,561.0000000000
1717675007857,175.0000000000,126.0000000000,66.0000000000,288.0000000000,460.0000000000,556.0000000000
1717675007857,174.0000000000,126.0000000000,66.0000000000,286.0000000000,454.0000000000,551.0000000000
1717675007888,172.0000000000,124.0000000000,65.0000000000,284.0000000000,449.0000000000,546.0000000000
1717675007889,171.0000000000,124.0000000000,65.0000000000,281.0000000000,446.0000000000,541.0000000000
1717675007890,169.0000000000,123.0000000000,63.0000000000,279.0000000000,441.0000000000,572.0000000000
1717675007890,198.0000000000,121.0000000000,63.0000000000,278.0000000000,472.0000000000,748.0000000000
1717675007890,235.0000000000,121.0000000000,63.0000000000,275.0000000000,467.0000000000,734.0000000000
1717675007890,231.0000000000,120.0000000000,63.0000000000,271.0000000000,462.0000000000,725.0000000000
1717675007890,230.0000000000,120.0000000000,62.0000000000,271.0000000000,457.0000000000,716.0000000000
1717675007891,228.0000000000,119.0000000000,62.0000000000,268.0000000000,454.0000000000,707.0000000000
1717675007891,225.0000000000,118.0000000000,62.0000000000,267.0000000000,449.0000000000,700.0000000000
1717675007891,224.0000000000,116.0000000000,61.0000000000,263.0000000000,445.0000000000,691.0000000000
1717675007892,222.0000000000,115.0000000000,61.0000000000,263.0000000000,440.0000000000,684.0000000000
1717675007892,221.0000000000,115.0000000000,61.0000000000,260.0000000000,436.0000000000,675.0000000000
1717675007892,219.0000000000,115.0000000000,60.0000000000,259.0000000000,433.0000000000,696.0000000000
1717675007893,217.0000000000,113.0000000000,60.0000000000,255.0000000000,430.0000000000,769.0000000000
1717675007893,288.0000000000,112.0000000000,60.0000000000,254.0000000000,425.0000000000,755.0000000000
1717675007893,286.0000000000,112.0000000000,59.0000000000,252.0000000000,423.0000000000,746.0000000000
1717675007893,283.0000000000,111.0000000000,59.0000000000,251.0000000000,419.0000000000,737.0000000000
1717675007893,280.0000000000,111.0000000000,58.0000000000,249.0000000000,415.0000000000,728.0000000000
1717675007911,278.0000000000,110.0000000000,57.0000000000,248.0000000000,412.0000000000,719.0000000000
1717675007912,275.0000000000,109.0000000000,57.0000000000,246.0000000000,408.0000000000,711.0000000000
1717675007912,273.0000000000,108.0000000000,56.0000000000,244.0000000000,404.0000000000,703.0000000000
1717675007913,271.0000000000,108.0000000000,60.0000000000,243.0000000000,401.0000000000,695.0000000000
1717675007913,269.0000000000,107.0000000000,60.0000000000,241.0000000000,398.0000000000,687.0000000000
1717675007913,267.0000000000,107.0000000000,60.0000000000,240.0000000000,396.0000000000,679.0000000000
1717675007914,264.0000000000,105.0000000000,59.0000000000,238.0000000000,391.0000000000,670.0000000000
1717675007914,263.0000000000,105.0000000000,58.0000000000,236.0000000000,390.0000000000,664.0000000000
1717675007914,261.0000000000,104.0000000000,59.0000000000,235.0000000000,387.0000000000,655.0000000000
1717675007915,259.0000000000,142.0000000000,57.0000000000,233.0000000000,384.0000000000,649.0000000000
1717675007936,257.0000000000,140.0000000000,57.0000000000,231.0000000000,381.0000000000,642.0000000000
1717675007937,255.0000000000,139.0000000000,57.0000000000,231.0000000000,380.0000000000,636.0000000000
1717675007937,253.0000000000,138.0000000000,57.0000000000,230.0000000000,377.0000000000,629.0000000000
1717675007937,252.0000000000,136.0000000000,56.0000000000,228.0000000000,375.0000000000,623.0000000000
1717675007937,249.0000000000,135.0000000000,56.0000000000,227.0000000000,371.0000000000,617.0000000000
1717675007937,248.0000000000,135.0000000000,56.0000000000,225.0000000000,369.0000000000,610.0000000000
1717675007937,246.0000000000,134.0000000000,56.0000000000,224.0000000000,367.0000000000,603.0000000000
1717675007937,244.0000000000,133.0000000000,55.0000000000,223.0000000000,364.0000000000,598.0000000000
1717675007937,243.0000000000,131.0000000000,55.0000000000,221.0000000000,362.0000000000,591.0000000000
1717675007938,241.0000000000,131.0000000000,54.0000000000,220.0000000000,359.0000000000,585.0000000000
1717675007938,239.0000000000,130.0000000000,54.0000000000,243.0000000000,358.0000000000,580.0000000000
1717675007938,238.0000000000,129.0000000000,53.0000000000,241.0000000000,398.0000000000,575.0000000000
1717675007952,236.0000000000,129.0000000000,53.0000000000,239.0000000000,441.0000000000,569.0000000000
1717675007952,235.0000000000,127.0000000000,52.0000000000,237.0000000000,436.0000000000,563.0000000000
1717675007952,231.0000000000,127.0000000000,52.0000000000,236.0000000000,432.0000000000,559.0000000000
1717675007952,231.0000000000,126.0000000000,51.0000000000,262.0000000000,429.0000000000,553.0000000000
1717675007953,230.0000000000,125.0000000000,52.0000000000,329.0000000000,424.0000000000,547.0000000000
1717675007953,227.0000000000,124.0000000000,51.0000000000,326.0000000000,421.0000000000,543.0000000000
1717675007953,226.0000000000,123.0000000000,51.0000000000,323.0000000000,417.0000000000,648.0000000000
1717675007953,225.0000000000,123.0000000000,51.0000000000,320.0000000000,414.0000000000,684.0000000000
1717675007969,223.0000000000,121.0000000000,51.0000000000,318.0000000000,409.0000000000,675.0000000000
1717675007969,222.0000000000,120.0000000000,50.0000000000,316.0000000000,407.0000000000,668.0000000000
1717675007969,220.0000000000,120.0000000000,49.0000000000,313.0000000000,403.0000000000,660.0000000000
1717675007970,219.0000000000,120.0000000000,49.0000000000,311.0000000000,399.0000000000,652.0000000000
1717675007970,217.0000000000,119.0000000000,49.0000000000,307.0000000000,396.0000000000,646.0000000000
1717675007970,216.0000000000,117.0000000000,49.0000000000,305.0000000000,393.0000000000,638.0000000000
1717675007970,214.0000000000,116.0000000000,48.0000000000,303.0000000000,390.0000000000,630.0000000000
1717675007970,213.0000000000,115.0000000000,48.0000000000,300.0000000000,393.0000000000,624.0000000000
1717675007984,211.0000000000,118.0000000000,48.0000000000,299.0000000000,459.0000000000,615.0000000000
1717675007985,210.0000000000,116.0000000000,48.0000000000,295.0000000000,455.0000000000,610.0000000000
1717675007985,208.0000000000,115.0000000000,48.0000000000,294.0000000000,449.0000000000,604.0000000000
1717675007985,207.0000000000,115.0000000000,47.0000000000,291.0000000000,446.0000000000,598.0000000000
1717675007985,206.0000000000,114.0000000000,47.0000000000,289.0000000000,441.0000000000,591.0000000000
1717675007985,204.0000000000,113.0000000000,46.0000000000,287.0000000000,438.0000000000,587.0000000000
1717675007985,203.0000000000,112.0000000000,47.0000000000,286.0000000000,433.0000000000,580.0000000000
1717675007986,202.0000000000,112.0000000000,46.0000000000,283.0000000000,430.0000000000,575.0000000000
1717675008002,199.0000000000,111.0000000000,45.0000000000,280.0000000000,425.0000000000,568.0000000000
1717675008003,199.0000000000,110.0000000000,46.0000000000,279.0000000000,423.0000000000,563.0000000000
1717675008004,198.0000000000,109.0000000000,44.0000000000,276.0000000000,419.0000000000,557.0000000000
1717675008004,196.0000000000,109.0000000000,45.0000000000,275.0000000000,415.0000000000,551.0000000000
1717675008004,195.0000000000,108.0000000000,44.0000000000,273.0000000000,412.0000000000,547.0000000000
1717675008004,195.0000000000,108.0000000000,48.0000000000,271.0000000000,408.0000000000,542.0000000000
1717675008004,193.0000000000,108.0000000000,48.0000000000,268.0000000000,404.0000000000,536.0000000000
1717675008005,192.0000000000,107.0000000000,48.0000000000,268.0000000000,401.0000000000,532.0000000000
1717675008023,191.0000000000,105.0000000000,48.0000000000,369.0000000000,398.0000000000,527.0000000000
1717675008024,190.0000000000,105.0000000000,47.0000000000,364.0000000000,395.0000000000,521.0000000000
1717675008024,188.0000000000,103.0000000000,47.0000000000,361.0000000000,391.0000000000,518.0000000000
1717675008024,187.0000000000,103.0000000000,46.0000000000,359.0000000000,388.0000000000,513.0000000000
1717675008025,185.0000000000,103.0000000000,46.0000000000,355.0000000000,385.0000000000,508.0000000000
1717675008025,184.0000000000,103.0000000000,46.0000000000,352.0000000000,383.0000000000,504.0000000000
1717675008025,184.0000000000,102.0000000000,45.0000000000,350.0000000000,380.0000000000,499.0000000000
1717675008026,183.0000000000,102.0000000000,45.0000000000,347.0000000000,376.0000000000,496.0000000000
1717675008026,182.0000000000,101.0000000000,45.0000000000,344.0000000000,374.0000000000,492.0000000000
1717675008026,180.0000000000,100.0000000000,44.0000000000,342.0000000000,371.0000000000,487.0000000000
1717675008026,179.0000000000,99.0000000000,44.0000000000,338.0000000000,368.0000000000,483.0000000000
1717675008026,178.0000000000,99.0000000000,44.0000000000,335.0000000000,422.0000000000,480.0000000000
1717675008045,177.0000000000,98.0000000000,44.0000000000,333.0000000000,417.0000000000,476.0000000000
1717675008046,176.0000000000,98.0000000000,44.0000000000,331.0000000000,414.0000000000,673.0000000000
1717675008046,175.0000000000,97.0000000000,43.0000000000,327.0000000000,411.0000000000,664.0000000000
1717675008046,174.0000000000,97.0000000000,43.0000000000,326.0000000000,408.0000000000,655.0000000000
1717675008047,172.0000000000,96.0000000000,43.0000000000,323.0000000000,404.0000000000,647.0000000000
1717675008047,172.0000000000,96.0000000000,42.0000000000,320.0000000000,399.0000000000,639.0000000000
1717675008047,171.0000000000,95.0000000000,42.0000000000,319.0000000000,397.0000000000,633.0000000000
1717675008047,169.0000000000,95.0000000000,41.0000000000,316.0000000000,393.0000000000,627.0000000000
1717675008047,168.0000000000,94.0000000000,41.0000000000,313.0000000000,391.0000000000,620.0000000000
1717675008048,203.0000000000,94.0000000000,41.0000000000,312.0000000000,409.0000000000,615.0000000000
1717675008066,220.0000000000,93.0000000000,40.0000000000,310.0000000000,406.0000000000,608.0000000000
1717675008067,218.0000000000,92.0000000000,40.0000000000,307.0000000000,402.0000000000,603.0000000000
1717675008067,216.0000000000,92.0000000000,40.0000000000,305.0000000000,399.0000000000,596.0000000000
1717675008067,215.0000000000,92.0000000000,40.0000000000,303.0000000000,395.0000000000,590.0000000000
1717675008067,212.0000000000,91.0000000000,39.0000000000,301.0000000000,391.0000000000,583.0000000000
1717675008067,211.0000000000,91.0000000000,39.0000000000,299.0000000000,388.0000000000,579.0000000000
1717675008068,210.0000000000,89.0000000000,46.0000000000,390.0000000000,385.0000000000,573.0000000000
1717675008068,207.0000000000,89.0000000000,46.0000000000,385.0000000000,383.0000000000,567.0000000000
1717675008068,207.0000000000,89.0000000000,46.0000000000,382.0000000000,380.0000000000,561.0000000000
1717675008068,206.0000000000,88.0000000000,45.0000000000,379.0000000000,376.0000000000,556.0000000000
1717675008068,204.0000000000,88.0000000000,44.0000000000,375.0000000000,374.0000000000,551.0000000000
1717675008088,202.0000000000,88.0000000000,44.0000000000,372.0000000000,371.0000000000,547.0000000000
1717675008089,201.0000000000,87.0000000000,44.0000000000,369.0000000000,368.0000000000,541.0000000000
1717675008090,199.0000000000,87.0000000000,60.0000000000,366.0000000000,366.0000000000,537.0000000000
1717675008090,199.0000000000,86.0000000000,71.0000000000,364.0000000000,363.0000000000,532.0000000000
1717675008090,197.0000000000,86.0000000000,71.0000000000,360.0000000000,359.0000000000,527.0000000000
1717675008090,195.0000000000,85.0000000000,70.0000000000,358.0000000000,357.0000000000,523.0000000000
1717675008090,194.0000000000,84.0000000000,70.0000000000,355.0000000000,355.0000000000,518.0000000000
1717675008091,193.0000000000,84.0000000000,68.0000000000,352.0000000000,352.0000000000,513.0000000000
1717675008091,192.0000000000,83.0000000000,68.0000000000,350.0000000000,350.0000000000,508.0000000000
1717675008091,190.0000000000,83.0000000000,67.0000000000,347.0000000000,348.0000000000,504.0000000000
1717675008119,189.0000000000,83.0000000000,67.0000000000,344.0000000000,345.0000000000,500.0000000000
1717675008121,188.0000000000,180.0000000000,124.0000000000,342.0000000000,343.0000000000,496.0000000000
1717675008121,187.0000000000,184.0000000000,123.0000000000,339.0000000000,340.0000000000,492.0000000000
1717675008122,185.0000000000,184.0000000000,121.0000000000,335.0000000000,339.0000000000,500.0000000000
1717675008122,184.0000000000,182.0000000000,120.0000000000,333.0000000000,335.0000000000,496.0000000000
1717675008122,183.0000000000,179.0000000000,120.0000000000,331.0000000000,334.0000000000,491.0000000000
1717675008122,181.0000000000,178.0000000000,119.0000000000,327.0000000000,332.0000000000,486.0000000000
1717675008123,180.0000000000,176.0000000000,118.0000000000,324.0000000000,329.0000000000,481.0000000000
1717675008123,179.0000000000,176.0000000000,116.0000000000,359.0000000000,327.0000000000,478.0000000000
1717675008123,177.0000000000,175.0000000000,115.0000000000,355.0000000000,324.0000000000,473.0000000000
1717675008123,176.0000000000,173.0000000000,115.0000000000,352.0000000000,323.0000000000,561.0000000000
1717675008124,175.0000000000,172.0000000000,114.0000000000,350.0000000000,320.0000000000,555.0000000000
1717675008124,174.0000000000,171.0000000000,113.0000000000,346.0000000000,318.0000000000,550.0000000000
1717675008124,173.0000000000,169.0000000000,112.0000000000,344.0000000000,316.0000000000,543.0000000000
1717675008124,172.0000000000,167.0000000000,112.0000000000,340.0000000000,313.0000000000,536.0000000000
1717675008125,171.0000000000,167.0000000000,111.0000000000,337.0000000000,312.0000000000,531.0000000000
1717675008125,169.0000000000,166.0000000000,110.0000000000,335.0000000000,310.0000000000,526.0000000000
1717675008126,167.0000000000,164.0000000000,110.0000000000,332.0000000000,307.0000000000,519.0000000000
1717675008154,167.0000000000,163.0000000000,109.0000000000,329.0000000000,305.0000000000,517.0000000000
1717675008155,166.0000000000,162.0000000000,108.0000000000,327.0000000000,304.0000000000,512.0000000000
1717675008155,164.0000000000,161.0000000000,107.0000000000,323.0000000000,302.0000000000,508.0000000000
1717675008156,163.0000000000,159.0000000000,107.0000000000,321.0000000000,300.0000000000,502.0000000000
1717675008156,163.0000000000,159.0000000000,105.0000000000,319.0000000000,297.0000000000,497.0000000000
1717675008157,161.0000000000,158.0000000000,105.0000000000,316.0000000000,295.0000000000,492.0000000000
1717675008157,160.0000000000,156.0000000000,103.0000000000,314.0000000000,294.0000000000,487.0000000000
1717675008157,159.0000000000,156.0000000000,103.0000000000,312.0000000000,291.0000000000,483.0000000000
1717675008157,161.0000000000,154.0000000000,103.0000000000,310.0000000000,290.0000000000,478.0000000000
1717675008158,171.0000000000,153.0000000000,102.0000000000,307.0000000000,287.0000000000,474.0000000000
1717675008158,169.0000000000,152.0000000000,101.0000000000,304.0000000000,286.0000000000,470.0000000000
1717675008158,167.0000000000,152.0000000000,100.0000000000,302.0000000000,329.0000000000,465.0000000000
1717675008158,167.0000000000,150.0000000000,100.0000000000,300.0000000000,326.0000000000,462.0000000000
1717675008159,166.0000000000,184.0000000000,99.0000000000,297.0000000000,328.0000000000,459.0000000000
1717675008159,163.0000000000,211.0000000000,99.0000000000,295.0000000000,326.0000000000,455.0000000000
1717675008175,163.0000000000,208.0000000000,98.0000000000,294.0000000000,323.0000000000,451.0000000000
1717675008176,161.0000000000,206.0000000000,97.0000000000,291.0000000000,319.0000000000,448.0000000000
1717675008176,160.0000000000,205.0000000000,97.0000000000,289.0000000000,318.0000000000,444.0000000000
1717675008177,159.0000000000,204.0000000000,96.0000000000,287.0000000000,316.0000000000,440.0000000000
1717675008177,159.0000000000,201.0000000000,96.0000000000,285.0000000000,313.0000000000,436.0000000000
1717675008177,157.0000000000,200.0000000000,95.0000000000,283.0000000000,311.0000000000,433.0000000000
1717675008177,156.0000000000,199.0000000000,94.0000000000,281.0000000000,308.0000000000,430.0000000000
1717675008177,156.0000000000,198.0000000000,94.0000000000,280.0000000000,305.0000000000,427.0000000000
1717675008192,155.0000000000,196.0000000000,93.0000000000,277.0000000000,304.0000000000,423.0000000000
1717675008193,153.0000000000,195.0000000000,92.0000000000,275.0000000000,302.0000000000,421.0000000000
1717675008193,152.0000000000,193.0000000000,92.0000000000,273.0000000000,300.0000000000,417.0000000000
1717675008193,152.0000000000,192.0000000000,92.0000000000,271.0000000000,297.0000000000,414.0000000000
1717675008193,151.0000000000,191.0000000000,91.0000000000,270.0000000000,295.0000000000,411.0000000000
1717675008193,180.0000000000,190.0000000000,91.0000000000,268.0000000000,293.0000000000,408.0000000000
1717675008193,198.0000000000,188.0000000000,89.0000000000,266.0000000000,291.0000000000,404.0000000000
1717675008193,195.0000000000,187.0000000000,89.0000000000,263.0000000000,289.0000000000,402.0000000000
1717675008206,194.0000000000,185.0000000000,88.0000000000,263.0000000000,287.0000000000,399.0000000000
1717675008206,192.0000000000,184.0000000000,88.0000000000,261.0000000000,284.0000000000,396.0000000000
1717675008206,191.0000000000,184.0000000000,88.0000000000,259.0000000000,283.0000000000,393.0000000000
1717675008206,190.0000000000,182.0000000000,94.0000000000,257.0000000000,281.0000000000,391.0000000000
1717675008207,188.0000000000,180.0000000000,92.0000000000,255.0000000000,280.0000000000,387.0000000000
1717675008207,187.0000000000,179.0000000000,92.0000000000,255.0000000000,278.0000000000,481.0000000000
1717675008207,185.0000000000,178.0000000000,92.0000000000,252.0000000000,275.0000000000,524.0000000000
1717675008207,184.0000000000,176.0000000000,91.0000000000,251.0000000000,274.0000000000,519.0000000000
1717675008222,183.0000000000,176.0000000000,90.0000000000,249.0000000000,272.0000000000,513.0000000000
1717675008225,182.0000000000,175.0000000000,89.0000000000,248.0000000000,271.0000000000,509.0000000000
1717675008226,180.0000000000,174.0000000000,89.0000000000,246.0000000000,269.0000000000,504.0000000000
1717675008226,179.0000000000,172.0000000000,88.0000000000,244.0000000000,268.0000000000,499.0000000000
1717675008226,177.0000000000,171.0000000000,88.0000000000,243.0000000000,266.0000000000,494.0000000000
1717675008226,176.0000000000,169.0000000000,88.0000000000,241.0000000000,263.0000000000,489.0000000000
1717675008226,175.0000000000,168.0000000000,87.0000000000,240.0000000000,265.0000000000,485.0000000000
1717675008226,174.0000000000,167.0000000000,86.0000000000,238.0000000000,263.0000000000,481.0000000000
1717675008227,243.0000000000,167.0000000000,86.0000000000,236.0000000000,262.0000000000,476.0000000000
1717675008227,258.0000000000,166.0000000000,85.0000000000,235.0000000000,259.0000000000,472.0000000000
1717675008242,255.0000000000,164.0000000000,84.0000000000,233.0000000000,258.0000000000,467.0000000000
1717675008243,253.0000000000,163.0000000000,84.0000000000,231.0000000000,257.0000000000,463.0000000000
1717675008243,251.0000000000,162.0000000000,83.0000000000,231.0000000000,255.0000000000,460.0000000000
1717675008243,248.0000000000,161.0000000000,83.0000000000,229.0000000000,254.0000000000,455.0000000000
1717675008243,247.0000000000,160.0000000000,82.0000000000,227.0000000000,252.0000000000,451.0000000000
1717675008244,245.0000000000,159.0000000000,82.0000000000,226.0000000000,251.0000000000,448.0000000000
1717675008244,243.0000000000,158.0000000000,81.0000000000,225.0000000000,249.0000000000,444.0000000000
1717675008244,241.0000000000,157.0000000000,81.0000000000,223.0000000000,248.0000000000,440.0000000000
1717675008269,239.0000000000,156.0000000000,80.0000000000,222.0000000000,247.0000000000,435.0000000000
1717675008270,238.0000000000,155.0000000000,79.0000000000,220.0000000000,245.0000000000,432.0000000000
1717675008270,236.0000000000,154.0000000000,79.0000000000,219.0000000000,243.0000000000,428.0000000000
1717675008270,235.0000000000,153.0000000000,79.0000000000,273.0000000000,242.0000000000,425.0000000000
1717675008270,231.0000000000,152.0000000000,78.0000000000,270.0000000000,241.0000000000,422.0000000000
1717675008270,231.0000000000,152.0000000000,78.0000000000,268.0000000000,240.0000000000,418.0000000000
1717675008270,229.0000000000,151.0000000000,78.0000000000,265.0000000000,238.0000000000,415.0000000000
1717675008270,227.0000000000,150.0000000000,131.0000000000,263.0000000000,236.0000000000,412.0000000000
1717675008270,225.0000000000,148.0000000000,129.0000000000,261.0000000000,235.0000000000,408.0000000000
1717675008270,224.0000000000,147.0000000000,127.0000000000,259.0000000000,233.0000000000,404.0000000000
1717675008271,223.0000000000,147.0000000000,127.0000000000,257.0000000000,231.0000000000,401.0000000000
1717675008271,221.0000000000,145.0000000000,127.0000000000,255.0000000000,231.0000000000,397.0000000000
1717675008285,220.0000000000,145.0000000000,126.0000000000,253.0000000000,230.0000000000,395.0000000000
1717675008286,217.0000000000,143.0000000000,124.0000000000,251.0000000000,228.0000000000,391.0000000000
1717675008286,216.0000000000,143.0000000000,124.0000000000,249.0000000000,227.0000000000,388.0000000000
1717675008286,215.0000000000,142.0000000000,123.0000000000,248.0000000000,225.0000000000,385.0000000000
1717675008286,212.0000000000,141.0000000000,122.0000000000,246.0000000000,224.0000000000,382.0000000000
1717675008286,211.0000000000,140.0000000000,120.0000000000,243.0000000000,239.0000000000,380.0000000000
1717675008286,210.0000000000,139.0000000000,120.0000000000,241.0000000000,237.0000000000,376.0000000000
1717675008287,208.0000000000,137.0000000000,120.0000000000,240.0000000000,236.0000000000,431.0000000000
1717675008305,210.0000000000,146.0000000000,118.0000000000,238.0000000000,233.0000000000,492.0000000000
1717675008306,209.0000000000,145.0000000000,117.0000000000,236.0000000000,231.0000000000,487.0000000000
1717675008307,207.0000000000,143.0000000000,116.0000000000,233.0000000000,230.0000000000,481.0000000000
1717675008307,206.0000000000,143.0000000000,115.0000000000,232.0000000000,228.0000000000,476.0000000000
1717675008307,204.0000000000,142.0000000000,115.0000000000,231.0000000000,227.0000000000,472.0000000000
1717675008307,203.0000000000,140.0000000000,114.0000000000,230.0000000000,225.0000000000,467.0000000000
1717675008308,201.0000000000,139.0000000000,113.0000000000,227.0000000000,224.0000000000,462.0000000000
1717675008308,199.0000000000,139.0000000000,113.0000000000,226.0000000000,222.0000000000,457.0000000000
1717675008308,211.0000000000,137.0000000000,112.0000000000,224.0000000000,220.0000000000,454.0000000000
1717675008309,319.0000000000,135.0000000000,111.0000000000,223.0000000000,220.0000000000,449.0000000000
1717675008309,315.0000000000,135.0000000000,111.0000000000,221.0000000000,218.0000000000,444.0000000000
1717675008341,312.0000000000,135.0000000000,110.0000000000,220.0000000000,217.0000000000,441.0000000000
1717675008343,308.0000000000,134.0000000000,109.0000000000,219.0000000000,216.0000000000,438.0000000000
1717675008343,306.0000000000,132.0000000000,108.0000000000,216.0000000000,214.0000000000,432.0000000000
1717675008343,304.0000000000,132.0000000000,108.0000000000,216.0000000000,213.0000000000,553.0000000000
1717675008344,300.0000000000,131.0000000000,107.0000000000,214.0000000000,211.0000000000,547.0000000000
1717675008344,297.0000000000,131.0000000000,105.0000000000,212.0000000000,211.0000000000,542.0000000000
1717675008344,295.0000000000,129.0000000000,105.0000000000,211.0000000000,209.0000000000,535.0000000000
1717675008344,292.0000000000,129.0000000000,103.0000000000,210.0000000000,208.0000000000,529.0000000000
1717675008345,291.0000000000,127.0000000000,103.0000000000,208.0000000000,207.0000000000,524.0000000000
1717675008345,287.0000000000,127.0000000000,103.0000000000,207.0000000000,206.0000000000,519.0000000000
1717675008345,286.0000000000,126.0000000000,103.0000000000,206.0000000000,204.0000000000,513.0000000000
1717675008345,284.0000000000,126.0000000000,102.0000000000,204.0000000000,204.0000000000,508.0000000000
1717675008345,281.0000000000,125.0000000000,101.0000000000,204.0000000000,273.0000000000,504.0000000000
1717675008345,280.0000000000,124.0000000000,100.0000000000,201.0000000000,271.0000000000,499.0000000000
1717675008345,277.0000000000,123.0000000000,100.0000000000,199.0000000000,268.0000000000,493.0000000000
1717675008345,275.0000000000,123.0000000000,99.0000000000,199.0000000000,267.0000000000,488.0000000000
1717675008358,273.0000000000,121.0000000000,99.0000000000,198.0000000000,263.0000000000,484.0000000000
1717675008359,271.0000000000,121.0000000000,98.0000000000,198.0000000000,262.0000000000,480.0000000000
1717675008359,269.0000000000,120.0000000000,97.0000000000,195.0000000000,260.0000000000,476.0000000000
1717675008360,267.0000000000,120.0000000000,97.0000000000,195.0000000000,257.0000000000,472.0000000000
1717675008360,265.0000000000,119.0000000000,96.0000000000,193.0000000000,255.0000000000,467.0000000000
1717675008360,263.0000000000,118.0000000000,95.0000000000,193.0000000000,254.0000000000,463.0000000000
1717675008360,262.0000000000,117.0000000000,95.0000000000,192.0000000000,253.0000000000,459.0000000000
1717675008360,259.0000000000,116.0000000000,94.0000000000,191.0000000000,251.0000000000,455.0000000000
1717675008373,257.0000000000,116.0000000000,94.0000000000,190.0000000000,248.0000000000,451.0000000000
1717675008374,255.0000000000,115.0000000000,93.0000000000,188.0000000000,248.0000000000,448.0000000000
1717675008374,255.0000000000,115.0000000000,93.0000000000,188.0000000000,246.0000000000,444.0000000000
1717675008374,254.0000000000,113.0000000000,92.0000000000,187.0000000000,243.0000000000,440.0000000000
1717675008374,252.0000000000,113.0000000000,91.0000000000,184.0000000000,242.0000000000,436.0000000000
1717675008374,250.0000000000,112.0000000000,91.0000000000,184.0000000000,240.0000000000,432.0000000000
1717675008374,248.0000000000,112.0000000000,90.0000000000,184.0000000000,239.0000000000,430.0000000000
1717675008374,247.0000000000,111.0000000000,89.0000000000,182.0000000000,237.0000000000,425.0000000000
1717675008388,245.0000000000,110.0000000000,89.0000000000,180.0000000000,236.0000000000,422.0000000000
1717675008389,243.0000000000,110.0000000000,88.0000000000,179.0000000000,233.0000000000,418.0000000000
1717675008389,241.0000000000,109.0000000000,88.0000000000,179.0000000000,231.0000000000,415.0000000000
1717675008389,240.0000000000,108.0000000000,88.0000000000,178.0000000000,231.0000000000,412.0000000000
1717675008389,238.0000000000,108.0000000000,88.0000000000,176.0000000000,229.0000000000,408.0000000000
1717675008389,237.0000000000,107.0000000000,87.0000000000,176.0000000000,227.0000000000,442.0000000000
1717675008405,235.0000000000,107.0000000000,86.0000000000,199.0000000000,226.0000000000,438.0000000000
1717675008406,233.0000000000,106.0000000000,86.0000000000,228.0000000000,224.0000000000,433.0000000000
1717675008406,231.0000000000,105.0000000000,85.0000000000,227.0000000000,223.0000000000,429.0000000000
1717675008406,231.0000000000,103.0000000000,84.0000000000,224.0000000000,222.0000000000,425.0000000000
1717675008406,228.0000000000,103.0000000000,83.0000000000,223.0000000000,220.0000000000,420.0000000000
1717675008406,227.0000000000,103.0000000000,83.0000000000,221.0000000000,219.0000000000,417.0000000000
1717675008407,225.0000000000,103.0000000000,83.0000000000,220.0000000000,216.0000000000,414.0000000000
1717675008407,224.0000000000,102.0000000000,83.0000000000,217.0000000000,216.0000000000,410.0000000000
1717675008424,223.0000000000,102.0000000000,81.0000000000,216.0000000000,214.0000000000,407.0000000000
1717675008428,221.0000000000,101.0000000000,81.0000000000,215.0000000000,212.0000000000,403.0000000000
1717675008429,220.0000000000,103.0000000000,81.0000000000,212.0000000000,211.0000000000,400.0000000000
1717675008429,219.0000000000,103.0000000000,80.0000000000,211.0000000000,260.0000000000,397.0000000000
1717675008430,216.0000000000,103.0000000000,80.0000000000,214.0000000000,260.0000000000,395.0000000000
1717675008430,216.0000000000,102.0000000000,79.0000000000,334.0000000000,259.0000000000,391.0000000000
1717675008430,214.0000000000,102.0000000000,79.0000000000,329.0000000000,255.0000000000,387.0000000000
1717675008432,212.0000000000,100.0000000000,79.0000000000,327.0000000000,255.0000000000,384.0000000000
1717675008433,211.0000000000,100.0000000000,78.0000000000,323.0000000000,252.0000000000,382.0000000000
1717675008434,210.0000000000,99.0000000000,78.0000000000,321.0000000000,251.0000000000,379.0000000000
1717675008436,235.0000000000,99.0000000000,78.0000000000,319.0000000000,248.0000000000,376.0000000000
1717675008437,232.0000000000,98.0000000000,77.0000000000,316.0000000000,247.0000000000,374.0000000000
1717675008437,231.0000000000,97.0000000000,76.0000000000,313.0000000000,263.0000000000,371.0000000000
1717675008438,230.0000000000,97.0000000000,76.0000000000,312.0000000000,260.0000000000,369.0000000000
1717675008439,227.0000000000,96.0000000000,76.0000000000,310.0000000000,259.0000000000,367.0000000000
1717675008440,226.0000000000,96.0000000000,76.0000000000,307.0000000000,255.0000000000,364.0000000000
1717675008440,224.0000000000,96.0000000000,75.0000000000,304.0000000000,255.0000000000,361.0000000000
1717675008441,223.0000000000,95.0000000000,75.0000000000,303.0000000000,253.0000000000,451.0000000000
1717675008469,221.0000000000,95.0000000000,74.0000000000,300.0000000000,251.0000000000,530.0000000000
1717675008470,219.0000000000,94.0000000000,73.0000000000,297.0000000000,249.0000000000,524.0000000000
1717675008470,217.0000000000,93.0000000000,73.0000000000,295.0000000000,248.0000000000,519.0000000000
1717675008470,216.0000000000,92.0000000000,73.0000000000,294.0000000000,246.0000000000,513.0000000000
1717675008470,215.0000000000,92.0000000000,71.0000000000,291.0000000000,244.0000000000,508.0000000000
1717675008470,214.0000000000,92.0000000000,71.0000000000,289.0000000000,243.0000000000,504.0000000000
1717675008470,211.0000000000,91.0000000000,71.0000000000,287.0000000000,241.0000000000,499.0000000000
1717675008471,211.0000000000,91.0000000000,71.0000000000,286.0000000000,275.0000000000,495.0000000000
1717675008471,209.0000000000,90.0000000000,71.0000000000,283.0000000000,300.0000000000,489.0000000000
1717675008471,207.0000000000,89.0000000000,70.0000000000,281.0000000000,295.0000000000,487.0000000000
1717675008471,206.0000000000,89.0000000000,70.0000000000,280.0000000000,294.0000000000,518.0000000000
1717675008471,206.0000000000,88.0000000000,69.0000000000,278.0000000000,291.0000000000,730.0000000000
1717675008471,268.0000000000,88.0000000000,69.0000000000,275.0000000000,289.0000000000,740.0000000000
1717675008471,265.0000000000,88.0000000000,68.0000000000,314.0000000000,287.0000000000,731.0000000000
1717675008471,263.0000000000,88.0000000000,68.0000000000,312.0000000000,285.0000000000,721.0000000000
1717675008488,262.0000000000,87.0000000000,67.0000000000,308.0000000000,283.0000000000,713.0000000000
1717675008489,259.0000000000,87.0000000000,67.0000000000,343.0000000000,281.0000000000,704.0000000000
1717675008489,257.0000000000,86.0000000000,67.0000000000,397.0000000000,280.0000000000,696.0000000000
1717675008489,255.0000000000,86.0000000000,67.0000000000,393.0000000000,277.0000000000,688.0000000000
1717675008489,254.0000000000,85.0000000000,66.0000000000,389.0000000000,275.0000000000,680.0000000000
1717675008489,252.0000000000,84.0000000000,65.0000000000,385.0000000000,273.0000000000,673.0000000000
1717675008489,249.0000000000,83.0000000000,65.0000000000,383.0000000000,271.0000000000,665.0000000000
1717675008489,248.0000000000,83.0000000000,65.0000000000,379.0000000000,270.0000000000,659.0000000000
1717675008490,246.0000000000,83.0000000000,65.0000000000,376.0000000000,268.0000000000,653.0000000000
1717675008490,244.0000000000,86.0000000000,64.0000000000,374.0000000000,265.0000000000,646.0000000000
1717675008490,243.0000000000,85.0000000000,63.0000000000,371.0000000000,263.0000000000,639.0000000000
1717675008509,241.0000000000,84.0000000000,63.0000000000,368.0000000000,262.0000000000,632.0000000000
1717675008510,240.0000000000,83.0000000000,63.0000000000,364.0000000000,259.0000000000,626.0000000000
1717675008510,238.0000000000,83.0000000000,63.0000000000,361.0000000000,258.0000000000,620.0000000000
1717675008510,236.0000000000,83.0000000000,62.0000000000,359.0000000000,255.0000000000,614.0000000000
1717675008511,235.0000000000,83.0000000000,74.0000000000,355.0000000000,255.0000000000,608.0000000000
1717675008511,232.0000000000,82.0000000000,73.0000000000,353.0000000000,253.0000000000,601.0000000000
1717675008511,231.0000000000,81.0000000000,73.0000000000,350.0000000000,252.0000000000,595.0000000000
1717675008511,230.0000000000,81.0000000000,72.0000000000,348.0000000000,249.0000000000,590.0000000000
1717675008512,228.0000000000,80.0000000000,71.0000000000,345.0000000000,248.0000000000,583.0000000000
1717675008512,227.0000000000,80.0000000000,71.0000000000,343.0000000000,247.0000000000,579.0000000000
1717675008529,225.0000000000,79.0000000000,71.0000000000,339.0000000000,245.0000000000,573.0000000000
1717675008529,224.0000000000,79.0000000000,71.0000000000,337.0000000000,243.0000000000,568.0000000000
1717675008530,222.0000000000,79.0000000000,70.0000000000,335.0000000000,241.0000000000,563.0000000000
1717675008530,220.0000000000,78.0000000000,70.0000000000,333.0000000000,240.0000000000,558.0000000000
1717675008530,219.0000000000,78.0000000000,69.0000000000,331.0000000000,239.0000000000,656.0000000000
1717675008530,217.0000000000,77.0000000000,68.0000000000,371.0000000000,237.0000000000,745.0000000000
1717675008531,237.0000000000,77.0000000000,68.0000000000,388.0000000000,235.0000000000,735.0000000000
1717675008531,235.0000000000,77.0000000000,68.0000000000,384.0000000000,233.0000000000,726.0000000000
1717675008532,233.0000000000,76.0000000000,67.0000000000,380.0000000000,231.0000000000,718.0000000000
1717675008532,231.0000000000,76.0000000000,67.0000000000,377.0000000000,231.0000000000,708.0000000000
1717675008532,230.0000000000,76.0000000000,67.0000000000,374.0000000000,230.0000000000,700.0000000000
1717675008566,227.0000000000,75.0000000000,66.0000000000,371.0000000000,228.0000000000,692.0000000000
1717675008567,227.0000000000,75.0000000000,66.0000000000,368.0000000000,227.0000000000,684.0000000000
1717675008567,224.0000000000,73.0000000000,65.0000000000,366.0000000000,225.0000000000,677.0000000000
1717675008567,223.0000000000,73.0000000000,64.0000000000,362.0000000000,249.0000000000,670.0000000000
1717675008567,222.0000000000,73.0000000000,65.0000000000,359.0000000000,248.0000000000,664.0000000000
1717675008567,220.0000000000,86.0000000000,63.0000000000,357.0000000000,246.0000000000,656.0000000000
1717675008567,218.0000000000,85.0000000000,63.0000000000,355.0000000000,243.0000000000,649.0000000000
1717675008567,217.0000000000,84.0000000000,63.0000000000,352.0000000000,241.0000000000,643.0000000000
1717675008568,216.0000000000,83.0000000000,63.0000000000,349.0000000000,272.0000000000,636.0000000000
1717675008568,214.0000000000,83.0000000000,63.0000000000,345.0000000000,335.0000000000,630.0000000000
1717675008568,212.0000000000,83.0000000000,62.0000000000,344.0000000000,332.0000000000,623.0000000000
1717675008568,211.0000000000,82.0000000000,62.0000000000,341.0000000000,329.0000000000,617.0000000000
1717675008569,210.0000000000,82.0000000000,62.0000000000,338.0000000000,327.0000000000,611.0000000000
1717675008569,207.0000000000,81.0000000000,61.0000000000,335.0000000000,324.0000000000,604.0000000000
1717675008569,207.0000000000,80.0000000000,60.0000000000,333.0000000000,322.0000000000,598.0000000000
1717675008569,206.0000000000,79.0000000000,60.0000000000,331.0000000000,319.0000000000,592.0000000000
1717675008570,204.0000000000,79.0000000000,60.0000000000,327.0000000000,317.0000000000,587.0000000000
1717675008570,204.0000000000,79.0000000000,60.0000000000,326.0000000000,315.0000000000,582.0000000000
1717675008571,202.0000000000,79.0000000000,60.0000000000,323.0000000000,312.0000000000,575.0000000000
1717675008571,200.0000000000,78.0000000000,59.0000000000,321.0000000000,310.0000000000,572.0000000000
1717675008614,199.0000000000,78.0000000000,59.0000000000,319.0000000000,307.0000000000,567.0000000000
1717675008615,198.0000000000,77.0000000000,58.0000000000,317.0000000000,305.0000000000,561.0000000000
1717675008616,197.0000000000,76.0000000000,57.0000000000,315.0000000000,303.0000000000,556.0000000000
1717675008616,195.0000000000,76.0000000000,57.0000000000,312.0000000000,301.0000000000,551.0000000000
1717675008616,195.0000000000,75.0000000000,57.0000000000,311.0000000000,299.0000000000,545.0000000000
1717675008616,193.0000000000,75.0000000000,57.0000000000,399.0000000000,295.0000000000,541.0000000000
1717675008617,192.0000000000,75.0000000000,56.0000000000,394.0000000000,295.0000000000,536.0000000000
1717675008617,192.0000000000,73.0000000000,56.0000000000,391.0000000000,292.0000000000,531.0000000000
1717675008617,191.0000000000,73.0000000000,56.0000000000,387.0000000000,291.0000000000,527.0000000000
1717675008617,189.0000000000,73.0000000000,56.0000000000,384.0000000000,289.0000000000,522.0000000000
1717675008617,188.0000000000,73.0000000000,56.0000000000,380.0000000000,287.0000000000,518.0000000000
1717675008618,187.0000000000,72.0000000000,56.0000000000,377.0000000000,285.0000000000,513.0000000000
1717675008618,185.0000000000,71.0000000000,55.0000000000,374.0000000000,283.0000000000,509.0000000000
1717675008618,184.0000000000,71.0000000000,54.0000000000,372.0000000000,280.0000000000,505.0000000000
1717675008618,184.0000000000,99.0000000000,54.0000000000,368.0000000000,279.0000000000,502.0000000000
1717675008619,183.0000000000,117.0000000000,54.0000000000,365.0000000000,276.0000000000,497.0000000000
1717675008619,182.0000000000,115.0000000000,54.0000000000,362.0000000000,275.0000000000,492.0000000000
1717675008619,180.0000000000,115.0000000000,53.0000000000,359.0000000000,273.0000000000,487.0000000000
1717675008619,179.0000000000,113.0000000000,52.0000000000,356.0000000000,274.0000000000,483.0000000000
1717675008620,179.0000000000,113.0000000000,52.0000000000,353.0000000000,271.0000000000,480.0000000000
1717675008620,177.0000000000,112.0000000000,51.0000000000,351.0000000000,269.0000000000,476.0000000000
1717675008620,176.0000000000,111.0000000000,51.0000000000,348.0000000000,268.0000000000,472.0000000000
1717675008621,175.0000000000,111.0000000000,51.0000000000,345.0000000000,266.0000000000,468.0000000000
1717675008621,174.0000000000,109.0000000000,51.0000000000,343.0000000000,263.0000000000,465.0000000000
1717675008621,173.0000000000,108.0000000000,51.0000000000,340.0000000000,262.0000000000,461.0000000000
1717675008642,172.0000000000,108.0000000000,51.0000000000,337.0000000000,260.0000000000,457.0000000000
1717675008643,171.0000000000,108.0000000000,50.0000000000,335.0000000000,259.0000000000,453.0000000000
1717675008644,170.0000000000,107.0000000000,50.0000000000,332.0000000000,257.0000000000,449.0000000000
1717675008644,169.0000000000,105.0000000000,50.0000000000,329.0000000000,255.0000000000,446.0000000000
1717675008644,167.0000000000,105.0000000000,50.0000000000,327.0000000000,254.0000000000,443.0000000000
1717675008644,167.0000000000,103.0000000000,49.0000000000,324.0000000000,275.0000000000,440.0000000000
1717675008645,166.0000000000,103.0000000000,49.0000000000,323.0000000000,273.0000000000,435.0000000000
1717675008645,164.0000000000,103.0000000000,49.0000000000,319.0000000000,271.0000000000,596.0000000000
1717675008645,164.0000000000,102.0000000000,89.0000000000,318.0000000000,269.0000000000,600.0000000000
1717675008645,163.0000000000,101.0000000000,88.0000000000,315.0000000000,268.0000000000,592.0000000000
1717675008646,161.0000000000,100.0000000000,87.0000000000,312.0000000000,265.0000000000,586.0000000000
1717675008646,161.0000000000,100.0000000000,87.0000000000,311.0000000000,263.0000000000,578.0000000000
1717675008675,160.0000000000,99.0000000000,86.0000000000,308.0000000000,261.0000000000,572.0000000000
1717675008676,159.0000000000,99.0000000000,86.0000000000,307.0000000000,259.0000000000,568.0000000000
1717675008676,158.0000000000,99.0000000000,85.0000000000,304.0000000000,257.0000000000,563.0000000000
1717675008676,157.0000000000,98.0000000000,84.0000000000,302.0000000000,255.0000000000,556.0000000000
1717675008676,156.0000000000,97.0000000000,83.0000000000,300.0000000000,254.0000000000,551.0000000000
1717675008676,156.0000000000,96.0000000000,83.0000000000,299.0000000000,252.0000000000,546.0000000000
1717675008676,155.0000000000,96.0000000000,83.0000000000,295.0000000000,251.0000000000,541.0000000000
1717675008676,153.0000000000,97.0000000000,81.0000000000,294.0000000000,248.0000000000,536.0000000000
1717675008677,153.0000000000,97.0000000000,81.0000000000,292.0000000000,248.0000000000,531.0000000000
1717675008677,152.0000000000,96.0000000000,81.0000000000,290.0000000000,294.0000000000,525.0000000000
1717675008677,151.0000000000,96.0000000000,79.0000000000,287.0000000000,290.0000000000,520.0000000000
1717675008677,151.0000000000,95.0000000000,79.0000000000,286.0000000000,287.0000000000,515.0000000000
1717675008677,150.0000000000,94.0000000000,79.0000000000,284.0000000000,286.0000000000,511.0000000000
1717675008677,149.0000000000,94.0000000000,79.0000000000,282.0000000000,283.0000000000,507.0000000000
1717675008678,148.0000000000,93.0000000000,78.0000000000,280.0000000000,280.0000000000,502.0000000000
1717675008678,147.0000000000,92.0000000000,78.0000000000,279.0000000000,279.0000000000,499.0000000000
1717675008678,146.0000000000,92.0000000000,77.0000000000,277.0000000000,276.0000000000,495.0000000000
1717675008701,145.0000000000,91.0000000000,77.0000000000,275.0000000000,274.0000000000,489.0000000000
1717675008703,144.0000000000,91.0000000000,76.0000000000,273.0000000000,272.0000000000,486.0000000000
1717675008703,143.0000000000,90.0000000000,76.0000000000,271.0000000000,271.0000000000,481.0000000000
1717675008703,154.0000000000,89.0000000000,76.0000000000,270.0000000000,268.0000000000,478.0000000000
1717675008704,163.0000000000,88.0000000000,75.0000000000,268.0000000000,267.0000000000,473.0000000000
1717675008704,162.0000000000,88.0000000000,75.0000000000,266.0000000000,265.0000000000,470.0000000000
1717675008705,161.0000000000,88.0000000000,73.0000000000,264.0000000000,263.0000000000,593.0000000000
1717675008705,159.0000000000,88.0000000000,73.0000000000,263.0000000000,262.0000000000,597.0000000000
1717675008706,159.0000000000,86.0000000000,73.0000000000,261.0000000000,259.0000000000,591.0000000000
1717675008706,158.0000000000,88.0000000000,71.0000000000,259.0000000000,257.0000000000,583.0000000000
1717675008707,156.0000000000,88.0000000000,71.0000000000,258.0000000000,255.0000000000,577.0000000000
1717675008707,156.0000000000,88.0000000000,71.0000000000,255.0000000000,254.0000000000,572.0000000000
1717675008707,155.0000000000,87.0000000000,71.0000000000,254.0000000000,252.0000000000,568.0000000000
1717675008708,153.0000000000,86.0000000000,71.0000000000,254.0000000000,251.0000000000,561.0000000000
1717675008708,153.0000000000,86.0000000000,70.0000000000,252.0000000000,249.0000000000,556.0000000000
1717675008736,152.0000000000,84.0000000000,70.0000000000,250.0000000000,248.0000000000,551.0000000000
1717675008736,151.0000000000,83.0000000000,69.0000000000,248.0000000000,287.0000000000,545.0000000000
1717675008737,150.0000000000,83.0000000000,68.0000000000,247.0000000000,284.0000000000,540.0000000000
1717675008737,148.0000000000,83.0000000000,68.0000000000,246.0000000000,283.0000000000,535.0000000000
1717675008737,148.0000000000,82.0000000000,68.0000000000,244.0000000000,280.0000000000,529.0000000000
1717675008737,147.0000000000,83.0000000000,67.0000000000,243.0000000000,316.0000000000,524.0000000000
1717675008737,145.0000000000,81.0000000000,67.0000000000,241.0000000000,344.0000000000,519.0000000000
1717675008737,145.0000000000,81.0000000000,67.0000000000,240.0000000000,340.0000000000,515.0000000000
1717675008737,146.0000000000,80.0000000000,66.0000000000,238.0000000000,337.0000000000,510.0000000000
1717675008737,145.0000000000,79.0000000000,66.0000000000,237.0000000000,335.0000000000,505.0000000000
1717675008737,143.0000000000,79.0000000000,65.0000000000,235.0000000000,332.0000000000,502.0000000000
1717675008737,143.0000000000,79.0000000000,65.0000000000,233.0000000000,329.0000000000,498.0000000000
1717675008737,143.0000000000,79.0000000000,65.0000000000,232.0000000000,327.0000000000,494.0000000000
1717675008738,142.0000000000,78.0000000000,63.0000000000,231.0000000000,324.0000000000,489.0000000000
1717675008756,141.0000000000,78.0000000000,63.0000000000,230.0000000000,322.0000000000,485.0000000000
1717675008757,140.0000000000,77.0000000000,63.0000000000,228.0000000000,319.0000000000,481.0000000000
1717675008757,139.0000000000,77.0000000000,63.0000000000,227.0000000000,317.0000000000,477.0000000000
1717675008757,139.0000000000,76.0000000000,63.0000000000,225.0000000000,315.0000000000,472.0000000000
1717675008758,137.0000000000,76.0000000000,62.0000000000,224.0000000000,367.0000000000,469.0000000000
1717675008758,136.0000000000,76.0000000000,62.0000000000,223.0000000000,363.0000000000,464.0000000000
1717675008758,135.0000000000,75.0000000000,62.0000000000,221.0000000000,359.0000000000,649.0000000000
1717675008759,135.0000000000,75.0000000000,61.0000000000,220.0000000000,356.0000000000,647.0000000000
1717675008759,135.0000000000,74.0000000000,61.0000000000,219.0000000000,354.0000000000,639.0000000000
1717675008759,134.0000000000,73.0000000000,60.0000000000,217.0000000000,351.0000000000,632.0000000000
1717675008760,134.0000000000,104.0000000000,60.0000000000,216.0000000000,348.0000000000,626.0000000000
1717675008760,132.0000000000,228.0000000000,60.0000000000,215.0000000000,345.0000000000,619.0000000000
1717675008760,131.0000000000,225.0000000000,59.0000000000,214.0000000000,343.0000000000,611.0000000000
1717675008790,131.0000000000,223.0000000000,59.0000000000,212.0000000000,339.0000000000,605.0000000000
1717675008791,135.0000000000,222.0000000000,59.0000000000,211.0000000000,337.0000000000,600.0000000000
1717675008792,158.0000000000,219.0000000000,58.0000000000,209.0000000000,334.0000000000,593.0000000000
1717675008792,156.0000000000,217.0000000000,57.0000000000,207.0000000000,332.0000000000,588.0000000000
1717675008793,155.0000000000,216.0000000000,57.0000000000,230.0000000000,329.0000000000,581.0000000000
1717675008793,153.0000000000,214.0000000000,56.0000000000,228.0000000000,327.0000000000,614.0000000000
1717675008793,152.0000000000,213.0000000000,57.0000000000,226.0000000000,324.0000000000,708.0000000000
1717675008793,152.0000000000,211.0000000000,57.0000000000,224.0000000000,321.0000000000,699.0000000000
1717675008794,151.0000000000,209.0000000000,71.0000000000,223.0000000000,319.0000000000,690.0000000000
1717675008794,149.0000000000,207.0000000000,71.0000000000,221.0000000000,316.0000000000,681.0000000000
1717675008795,147.0000000000,207.0000000000,70.0000000000,220.0000000000,315.0000000000,673.0000000000
1717675008795,193.0000000000,205.0000000000,70.0000000000,218.0000000000,312.0000000000,666.0000000000
1717675008796,192.0000000000,204.0000000000,69.0000000000,216.0000000000,310.0000000000,659.0000000000
1717675008796,190.0000000000,202.0000000000,68.0000000000,215.0000000000,307.0000000000,652.0000000000
1717675008796,188.0000000000,199.0000000000,67.0000000000,214.0000000000,305.0000000000,644.0000000000
1717675008796,187.0000000000,199.0000000000,67.0000000000,211.0000000000,304.0000000000,636.0000000000
1717675008797,185.0000000000,198.0000000000,67.0000000000,210.0000000000,301.0000000000,630.0000000000
1717675008797,184.0000000000,197.0000000000,67.0000000000,209.0000000000,299.0000000000,623.0000000000
1717675008824,183.0000000000,195.0000000000,67.0000000000,207.0000000000,296.0000000000,615.0000000000
1717675008824,181.0000000000,194.0000000000,67.0000000000,255.0000000000,295.0000000000,609.0000000000
1717675008824,180.0000000000,192.0000000000,67.0000000000,253.0000000000,292.0000000000,604.0000000000
1717675008824,188.0000000000,192.0000000000,66.0000000000,251.0000000000,290.0000000000,598.0000000000
1717675008824,186.0000000000,190.0000000000,65.0000000000,248.0000000000,287.0000000000,591.0000000000
1717675008824,184.0000000000,189.0000000000,65.0000000000,248.0000000000,286.0000000000,585.0000000000
1717675008825,184.0000000000,188.0000000000,65.0000000000,246.0000000000,419.0000000000,580.0000000000
1717675008825,182.0000000000,185.0000000000,64.0000000000,243.0000000000,413.0000000000,574.0000000000
1717675008826,180.0000000000,185.0000000000,63.0000000000,240.0000000000,408.0000000000,568.0000000000
1717675008826,179.0000000000,184.0000000000,63.0000000000,239.0000000000,405.0000000000,562.0000000000
1717675008826,177.0000000000,183.0000000000,63.0000000000,238.0000000000,401.0000000000,557.0000000000
1717675008827,176.0000000000,181.0000000000,63.0000000000,236.0000000000,398.0000000000,551.0000000000
1717675008828,176.0000000000,180.0000000000,62.0000000000,234.0000000000,393.0000000000,547.0000000000
1717675008828,174.0000000000,179.0000000000,62.0000000000,231.0000000000,391.0000000000,542.0000000000
1717675008862,172.0000000000,177.0000000000,61.0000000000,231.0000000000,387.0000000000,537.0000000000
1717675008865,171.0000000000,176.0000000000,61.0000000000,229.0000000000,384.0000000000,532.0000000000
1717675008865,171.0000000000,175.0000000000,60.0000000000,227.0000000000,381.0000000000,527.0000000000
1717675008865,169.0000000000,175.0000000000,60.0000000000,225.0000000000,377.0000000000,521.0000000000
1717675008866,167.0000000000,174.0000000000,60.0000000000,224.0000000000,375.0000000000,517.0000000000
1717675008866,167.0000000000,172.0000000000,60.0000000000,222.0000000000,372.0000000000,512.0000000000
1717675008867,166.0000000000,171.0000000000,59.0000000000,220.0000000000,369.0000000000,508.0000000000
1717675008867,164.0000000000,169.0000000000,59.0000000000,219.0000000000,366.0000000000,504.0000000000
1717675008868,163.0000000000,168.0000000000,58.0000000000,217.0000000000,363.0000000000,499.0000000000
1717675008868,183.0000000000,167.0000000000,57.0000000000,216.0000000000,359.0000000000,495.0000000000
1717675008869,182.0000000000,167.0000000000,57.0000000000,215.0000000000,358.0000000000,491.0000000000
1717675008869,180.0000000000,166.0000000000,57.0000000000,212.0000000000,355.0000000000,487.0000000000
1717675008870,179.0000000000,164.0000000000,56.0000000000,285.0000000000,352.0000000000,483.0000000000
1717675008870,177.0000000000,163.0000000000,56.0000000000,283.0000000000,350.0000000000,478.0000000000
1717675008871,176.0000000000,163.0000000000,56.0000000000,280.0000000000,347.0000000000,475.0000000000
1717675008872,175.0000000000,161.0000000000,56.0000000000,278.0000000000,344.0000000000,470.0000000000
1717675008872,174.0000000000,161.0000000000,83.0000000000,275.0000000000,342.0000000000,467.0000000000
1717675008873,172.0000000000,159.0000000000,83.0000000000,273.0000000000,339.0000000000,463.0000000000
1717675008873,171.0000000000,159.0000000000,82.0000000000,271.0000000000,336.0000000000,459.0000000000
1717675008873,169.0000000000,157.0000000000,82.0000000000,270.0000000000,334.0000000000,455.0000000000
1717675008873,167.0000000000,156.0000000000,81.0000000000,268.0000000000,332.0000000000,451.0000000000
1717675008873,167.0000000000,156.0000000000,81.0000000000,265.0000000000,329.0000000000,448.0000000000
1717675008888,166.0000000000,155.0000000000,79.0000000000,263.0000000000,331.0000000000,445.0000000000
1717675008889,165.0000000000,153.0000000000,79.0000000000,261.0000000000,388.0000000000,440.0000000000
1717675008889,163.0000000000,152.0000000000,79.0000000000,259.0000000000,384.0000000000,437.0000000000
1717675008889,163.0000000000,152.0000000000,78.0000000000,257.0000000000,381.0000000000,433.0000000000
1717675008889,161.0000000000,151.0000000000,78.0000000000,255.0000000000,379.0000000000,430.0000000000
1717675008890,160.0000000000,150.0000000000,77.0000000000,253.0000000000,376.0000000000,427.0000000000
1717675008890,198.0000000000,149.0000000000,77.0000000000,252.0000000000,371.0000000000,423.0000000000
1717675008890,195.0000000000,147.0000000000,76.0000000000,249.0000000000,368.0000000000,421.0000000000
1717675008906,193.0000000000,147.0000000000,76.0000000000,248.0000000000,365.0000000000,418.0000000000
1717675008906,192.0000000000,146.0000000000,75.0000000000,359.0000000000,362.0000000000,415.0000000000
1717675008906,191.0000000000,145.0000000000,74.0000000000,380.0000000000,359.0000000000,412.0000000000
1717675008906,189.0000000000,144.0000000000,74.0000000000,376.0000000000,356.0000000000,408.0000000000
1717675008906,188.0000000000,143.0000000000,73.0000000000,371.0000000000,354.0000000000,406.0000000000
1717675008906,186.0000000000,143.0000000000,72.0000000000,369.0000000000,352.0000000000,402.0000000000
1717675008907,185.0000000000,142.0000000000,72.0000000000,366.0000000000,372.0000000000,399.0000000000
1717675008907,184.0000000000,140.0000000000,71.0000000000,363.0000000000,433.0000000000,396.0000000000
1717675008922,182.0000000000,140.0000000000,71.0000000000,359.0000000000,429.0000000000,393.0000000000
1717675008923,180.0000000000,139.0000000000,71.0000000000,356.0000000000,425.0000000000,391.0000000000
1717675008924,179.0000000000,138.0000000000,71.0000000000,354.0000000000,421.0000000000,387.0000000000
1717675008924,177.0000000000,137.0000000000,70.0000000000,352.0000000000,417.0000000000,385.0000000000
1717675008925,177.0000000000,207.0000000000,70.0000000000,348.0000000000,414.0000000000,383.0000000000
1717675008925,176.0000000000,204.0000000000,69.0000000000,345.0000000000,411.0000000000,380.0000000000
1717675008926,174.0000000000,203.0000000000,68.0000000000,343.0000000000,408.0000000000,376.0000000000
1717675008927,173.0000000000,201.0000000000,68.0000000000,339.0000000000,403.0000000000,374.0000000000
1717675008927,172.0000000000,199.0000000000,67.0000000000,337.0000000000,399.0000000000,371.0000000000
1717675008928,171.0000000000,198.0000000000,67.0000000000,335.0000000000,396.0000000000,369.0000000000
1717675008928,169.0000000000,197.0000000000,67.0000000000,332.0000000000,393.0000000000,366.0000000000
1717675008929,167.0000000000,195.0000000000,66.0000000000,329.0000000000,390.0000000000,364.0000000000
1717675008956,167.0000000000,193.0000000000,66.0000000000,327.0000000000,387.0000000000,361.0000000000
1717675008956,166.0000000000,192.0000000000,65.0000000000,324.0000000000,384.0000000000,359.0000000000
1717675008956,165.0000000000,191.0000000000,65.0000000000,321.0000000000,381.0000000000,356.0000000000
1717675008956,163.0000000000,190.0000000000,65.0000000000,319.0000000000,377.0000000000,354.0000000000
1717675008957,163.0000000000,188.0000000000,64.0000000000,317.0000000000,375.0000000000,352.0000000000
1717675008957,161.0000000000,187.0000000000,63.0000000000,315.0000000000,372.0000000000,349.0000000000
1717675008957,159.0000000000,185.0000000000,63.0000000000,312.0000000000,369.0000000000,347.0000000000
1717675008957,159.0000000000,184.0000000000,63.0000000000,310.0000000000,417.0000000000,345.0000000000
1717675008957,223.0000000000,184.0000000000,63.0000000000,307.0000000000,435.0000000000,343.0000000000
1717675008957,220.0000000000,182.0000000000,62.0000000000,305.0000000000,431.0000000000,340.0000000000
1717675008957,218.0000000000,180.0000000000,62.0000000000,304.0000000000,427.0000000000,338.0000000000
1717675008957,216.0000000000,179.0000000000,61.0000000000,301.0000000000,423.0000000000,335.0000000000
1717675008957,215.0000000000,178.0000000000,61.0000000000,299.0000000000,419.0000000000,339.0000000000
1717675008957,213.0000000000,177.0000000000,61.0000000000,296.0000000000,415.0000000000,412.0000000000
1717675008973,211.0000000000,176.0000000000,60.0000000000,294.0000000000,412.0000000000,408.0000000000
1717675008974,209.0000000000,175.0000000000,60.0000000000,292.0000000000,408.0000000000,404.0000000000
1717675008974,207.0000000000,174.0000000000,60.0000000000,326.0000000000,405.0000000000,400.0000000000
1717675008975,207.0000000000,172.0000000000,59.0000000000,323.0000000000,401.0000000000,397.0000000000
1717675008975,205.0000000000,171.0000000000,59.0000000000,319.0000000000,398.0000000000,393.0000000000
1717675008975,204.0000000000,171.0000000000,58.0000000000,318.0000000000,395.0000000000,391.0000000000
1717675008975,201.0000000000,168.0000000000,57.0000000000,316.0000000000,391.0000000000,387.0000000000
1717675008975,199.0000000000,167.0000000000,57.0000000000,312.0000000000,388.0000000000,384.0000000000
1717675008993,199.0000000000,167.0000000000,57.0000000000,310.0000000000,385.0000000000,380.0000000000
1717675008994,198.0000000000,166.0000000000,56.0000000000,307.0000000000,383.0000000000,377.0000000000
1717675008994,196.0000000000,164.0000000000,56.0000000000,305.0000000000,380.0000000000,374.0000000000
1717675008994,195.0000000000,163.0000000000,56.0000000000,302.0000000000,376.0000000000,371.0000000000
1717675008995,193.0000000000,163.0000000000,56.0000000000,300.0000000000,374.0000000000,368.0000000000
1717675008995,192.0000000000,161.0000000000,56.0000000000,297.0000000000,369.0000000000,365.0000000000
1717675008995,191.0000000000,159.0000000000,56.0000000000,295.0000000000,368.0000000000,363.0000000000
1717675008995,190.0000000000,159.0000000000,55.0000000000,293.0000000000,364.0000000000,359.0000000000
1717675008996,188.0000000000,158.0000000000,55.0000000000,291.0000000000,361.0000000000,357.0000000000
1717675008996,187.0000000000,158.0000000000,54.0000000000,289.0000000000,359.0000000000,354.0000000000
1717675009028,187.0000000000,156.0000000000,54.0000000000,287.0000000000,356.0000000000,351.0000000000
1717675009029,184.0000000000,155.0000000000,54.0000000000,285.0000000000,353.0000000000,348.0000000000
1717675009029,184.0000000000,155.0000000000,52.0000000000,283.0000000000,431.0000000000,345.0000000000
1717675009029,183.0000000000,153.0000000000,53.0000000000,281.0000000000,457.0000000000,344.0000000000
1717675009029,181.0000000000,259.0000000000,52.0000000000,279.0000000000,451.0000000000,340.0000000000
1717675009029,179.0000000000,255.0000000000,51.0000000000,277.0000000000,447.0000000000,337.0000000000
1717675009029,178.0000000000,253.0000000000,52.0000000000,275.0000000000,443.0000000000,335.0000000000
1717675009030,177.0000000000,251.0000000000,51.0000000000,273.0000000000,439.0000000000,334.0000000000
1717675009030,176.0000000000,248.0000000000,51.0000000000,271.0000000000,435.0000000000,332.0000000000
1717675009030,175.0000000000,247.0000000000,51.0000000000,270.0000000000,431.0000000000,329.0000000000
1717675009030,174.0000000000,244.0000000000,51.0000000000,267.0000000000,428.0000000000,327.0000000000
1717675009030,172.0000000000,243.0000000000,51.0000000000,265.0000000000,423.0000000000,324.0000000000
1717675009030,171.0000000000,241.0000000000,50.0000000000,263.0000000000,420.0000000000,440.0000000000
1717675009030,170.0000000000,240.0000000000,49.0000000000,262.0000000000,417.0000000000,483.0000000000
1717675009030,169.0000000000,238.0000000000,49.0000000000,260.0000000000,414.0000000000,477.0000000000
1717675009030,167.0000000000,236.0000000000,49.0000000000,259.0000000000,408.0000000000,472.0000000000
1717675009030,167.0000000000,235.0000000000,49.0000000000,256.0000000000,406.0000000000,468.0000000000
1717675009031,166.0000000000,231.0000000000,48.0000000000,255.0000000000,402.0000000000,463.0000000000
1717675009051,164.0000000000,231.0000000000,48.0000000000,254.0000000000,399.0000000000,460.0000000000
1717675009052,163.0000000000,230.0000000000,48.0000000000,252.0000000000,396.0000000000,455.0000000000
1717675009052,163.0000000000,227.0000000000,48.0000000000,250.0000000000,393.0000000000,462.0000000000
1717675009052,161.0000000000,226.0000000000,49.0000000000,248.0000000000,390.0000000000,457.0000000000
1717675009052,160.0000000000,225.0000000000,65.0000000000,247.0000000000,387.0000000000,452.0000000000
1717675009052,159.0000000000,224.0000000000,65.0000000000,245.0000000000,442.0000000000,448.0000000000
1717675009052,159.0000000000,222.0000000000,64.0000000000,243.0000000000,438.0000000000,444.0000000000
1717675009053,158.0000000000,220.0000000000,63.0000000000,242.0000000000,433.0000000000,440.0000000000
1717675009053,156.0000000000,219.0000000000,63.0000000000,240.0000000000,428.0000000000,436.0000000000
1717675009053,155.0000000000,217.0000000000,63.0000000000,239.0000000000,424.0000000000,433.0000000000
1717675009069,153.0000000000,216.0000000000,63.0000000000,238.0000000000,459.0000000000,430.0000000000
1717675009069,153.0000000000,214.0000000000,63.0000000000,236.0000000000,454.0000000000,426.0000000000
1717675009069,152.0000000000,212.0000000000,62.0000000000,234.0000000000,449.0000000000,422.0000000000
1717675009069,152.0000000000,211.0000000000,79.0000000000,233.0000000000,446.0000000000,418.0000000000
1717675009069,150.0000000000,209.0000000000,78.0000000000,231.0000000000,441.0000000000,517.0000000000
1717675009070,150.0000000000,207.0000000000,77.0000000000,230.0000000000,438.0000000000,525.0000000000
1717675009070,148.0000000000,207.0000000000,76.0000000000,228.0000000000,433.0000000000,519.0000000000
1717675009070,147.0000000000,206.0000000000,76.0000000000,227.0000000000,429.0000000000,514.0000000000
1717675009084,147.0000000000,204.0000000000,75.0000000000,225.0000000000,425.0000000000,509.0000000000
1717675009084,145.0000000000,204.0000000000,75.0000000000,224.0000000000,422.0000000000,504.0000000000
1717675009084,145.0000000000,201.0000000000,74.0000000000,223.0000000000,419.0000000000,499.0000000000
1717675009084,143.0000000000,199.0000000000,74.0000000000,221.0000000000,415.0000000000,495.0000000000
1717675009084,143.0000000000,199.0000000000,73.0000000000,220.0000000000,412.0000000000,489.0000000000
1717675009085,142.0000000000,198.0000000000,73.0000000000,219.0000000000,408.0000000000,484.0000000000
1717675009085,141.0000000000,196.0000000000,71.0000000000,217.0000000000,404.0000000000,480.0000000000
1717675009085,140.0000000000,195.0000000000,71.0000000000,216.0000000000,401.0000000000,476.0000000000
1717675009097,173.0000000000,194.0000000000,71.0000000000,215.0000000000,398.0000000000,472.0000000000
1717675009098,171.0000000000,193.0000000000,71.0000000000,212.0000000000,395.0000000000,467.0000000000
1717675009098,169.0000000000,192.0000000000,70.0000000000,211.0000000000,391.0000000000,463.0000000000
1717675009098,167.0000000000,190.0000000000,70.0000000000,210.0000000000,388.0000000000,460.0000000000
1717675009098,167.0000000000,189.0000000000,70.0000000000,209.0000000000,385.0000000000,455.0000000000
1717675009098,166.0000000000,188.0000000000,69.0000000000,207.0000000000,383.0000000000,451.0000000000
1717675009112,164.0000000000,187.0000000000,68.0000000000,207.0000000000,380.0000000000,447.0000000000
1717675009112,163.0000000000,185.0000000000,67.0000000000,205.0000000000,376.0000000000,444.0000000000
1717675009112,162.0000000000,184.0000000000,67.0000000000,204.0000000000,374.0000000000,536.0000000000
1717675009113,161.0000000000,184.0000000000,67.0000000000,203.0000000000,371.0000000000,612.0000000000
1717675009113,255.0000000000,182.0000000000,66.0000000000,201.0000000000,368.0000000000,605.0000000000
1717675009113,252.0000000000,181.0000000000,66.0000000000,199.0000000000,365.0000000000,599.0000000000
1717675009113,250.0000000000,179.0000000000,65.0000000000,199.0000000000,363.0000000000,591.0000000000
1717675009113,248.0000000000,179.0000000000,65.0000000000,198.0000000000,359.0000000000,586.0000000000
1717675009128,246.0000000000,177.0000000000,64.0000000000,196.0000000000,357.0000000000,579.0000000000
1717675009129,244.0000000000,176.0000000000,63.0000000000,195.0000000000,355.0000000000,574.0000000000
1717675009129,242.0000000000,175.0000000000,63.0000000000,194.0000000000,352.0000000000,567.0000000000
1717675009129,240.0000000000,174.0000000000,63.0000000000,193.0000000000,350.0000000000,561.0000000000
1717675009129,239.0000000000,173.0000000000,63.0000000000,192.0000000000,371.0000000000,556.0000000000
1717675009129,236.0000000000,172.0000000000,64.0000000000,191.0000000000,368.0000000000,550.0000000000
1717675009129,235.0000000000,171.0000000000,64.0000000000,190.0000000000,364.0000000000,545.0000000000
1717675009129,233.0000000000,169.0000000000,63.0000000000,189.0000000000,361.0000000000,540.0000000000
1717675009145,231.0000000000,168.0000000000,63.0000000000,188.0000000000,358.0000000000,536.0000000000
1717675009145,230.0000000000,167.0000000000,63.0000000000,187.0000000000,406.0000000000,530.0000000000
1717675009146,228.0000000000,167.0000000000,63.0000000000,185.0000000000,402.0000000000,525.0000000000
1717675009146,227.0000000000,166.0000000000,62.0000000000,184.0000000000,399.0000000000,519.0000000000
1717675009146,225.0000000000,164.0000000000,62.0000000000,183.0000000000,395.0000000000,514.0000000000
1717675009146,223.0000000000,163.0000000000,61.0000000000,182.0000000000,391.0000000000,510.0000000000
1717675009146,222.0000000000,163.0000000000,61.0000000000,181.0000000000,388.0000000000,504.0000000000
1717675009146,220.0000000000,162.0000000000,60.0000000000,180.0000000000,385.0000000000,500.0000000000
1717675009162,219.0000000000,161.0000000000,60.0000000000,179.0000000000,382.0000000000,496.0000000000
1717675009163,216.0000000000,159.0000000000,60.0000000000,178.0000000000,377.0000000000,492.0000000000
1717675009163,215.0000000000,159.0000000000,59.0000000000,177.0000000000,403.0000000000,487.0000000000
1717675009163,214.0000000000,158.0000000000,59.0000000000,176.0000000000,444.0000000000,483.0000000000
1717675009163,212.0000000000,157.0000000000,59.0000000000,175.0000000000,440.0000000000,480.0000000000
1717675009164,211.0000000000,156.0000000000,58.0000000000,174.0000000000,435.0000000000,476.0000000000
1717675009164,209.0000000000,155.0000000000,57.0000000000,172.0000000000,432.0000000000,471.0000000000
1717675009164,207.0000000000,155.0000000000,57.0000000000,172.0000000000,428.0000000000,467.0000000000
1717675009164,207.0000000000,153.0000000000,57.0000000000,171.0000000000,423.0000000000,463.0000000000
1717675009165,205.0000000000,152.0000000000,56.0000000000,169.0000000000,420.0000000000,459.0000000000
1717675009180,204.0000000000,152.0000000000,56.0000000000,168.0000000000,417.0000000000,455.0000000000
1717675009181,202.0000000000,151.0000000000,56.0000000000,167.0000000000,412.0000000000,451.0000000000
1717675009181,200.0000000000,150.0000000000,56.0000000000,167.0000000000,409.0000000000,448.0000000000
1717675009181,199.0000000000,149.0000000000,56.0000000000,166.0000000000,406.0000000000,444.0000000000
1717675009182,198.0000000000,148.0000000000,55.0000000000,165.0000000000,402.0000000000,440.0000000000
1717675009182,197.0000000000,147.0000000000,55.0000000000,164.0000000000,399.0000000000,437.0000000000
1717675009182,195.0000000000,147.0000000000,54.0000000000,163.0000000000,396.0000000000,433.0000000000
1717675009182,194.0000000000,145.0000000000,54.0000000000,163.0000000000,392.0000000000,430.0000000000
1717675009199,193.0000000000,144.0000000000,54.0000000000,161.0000000000,390.0000000000,426.0000000000
1717675009200,192.0000000000,143.0000000000,53.0000000000,160.0000000000,387.0000000000,423.0000000000
1717675009200,191.0000000000,143.0000000000,52.0000000000,159.0000000000,457.0000000000,419.0000000000
1717675009201,190.0000000000,142.0000000000,52.0000000000,159.0000000000,451.0000000000,416.0000000000
1717675009201,188.0000000000,142.0000000000,51.0000000000,212.0000000000,448.0000000000,413.0000000000
1717675009201,187.0000000000,140.0000000000,51.0000000000,209.0000000000,444.0000000000,410.0000000000
1717675009201,185.0000000000,140.0000000000,51.0000000000,208.0000000000,440.0000000000,408.0000000000
1717675009202,184.0000000000,139.0000000000,51.0000000000,207.0000000000,435.0000000000,403.0000000000
1717675009202,184.0000000000,138.0000000000,51.0000000000,205.0000000000,432.0000000000,399.0000000000
1717675009202,182.0000000000,137.0000000000,51.0000000000,203.0000000000,428.0000000000,397.0000000000
1717675009228,180.0000000000,136.0000000000,49.0000000000,201.0000000000,423.0000000000,394.0000000000
