timestamp,Channel 1,Channel 2,Channel 3,Channel 4,Channel 5,Channel 6
1717675020468,35.0000000000,0.0000000000,3.0000000000,76.0000000000,73.0000000000,3.0000000000
1717675020469,35.0000000000,0.0000000000,3.0000000000,76.0000000000,73.0000000000,3.0000000000
1717675020469,35.0000000000,0.0000000000,3.0000000000,75.0000000000,72.0000000000,3.0000000000
1717675020469,35.0000000000,0.0000000000,3.0000000000,75.0000000000,72.0000000000,3.0000000000
1717675020469,35.0000000000,0.0000000000,3.0000000000,74.0000000000,71.0000000000,3.0000000000
1717675020470,35.0000000000,0.0000000000,3.0000000000,73.0000000000,71.0000000000,3.0000000000
1717675020470,35.0000000000,0.0000000000,3.0000000000,73.0000000000,71.0000000000,3.0000000000
1717675020470,35.0000000000,0.0000000000,3.0000000000,73.0000000000,71.0000000000,3.0000000000
1717675020470,34.0000000000,0.0000000000,3.0000000000,72.0000000000,71.0000000000,3.0000000000
1717675020470,33.0000000000,0.0000000000,3.0000000000,73.0000000000,71.0000000000,3.0000000000
1717675020470,33.0000000000,0.0000000000,3.0000000000,71.0000000000,70.0000000000,3.0000000000
1717675020470,33.0000000000,0.0000000000,3.0000000000,71.0000000000,70.0000000000,3.0000000000
1717675020470,33.0000000000,0.0000000000,3.0000000000,71.0000000000,70.0000000000,3.0000000000
1717675020471,33.0000000000,0.0000000000,3.0000000000,71.0000000000,70.0000000000,3.0000000000
1717675020471,33.0000000000,0.0000000000,3.0000000000,71.0000000000,70.0000000000,3.0000000000
1717675020471,33.0000000000,0.0000000000,3.0000000000,71.0000000000,69.0000000000,3.0000000000
1717675020471,32.0000000000,0.0000000000,3.0000000000,71.0000000000,69.0000000000,3.0000000000
1717675020471,33.0000000000,0.0000000000,3.0000000000,70.0000000000,68.0000000000,3.0000000000
1717675020490,34.0000000000,0.0000000000,3.0000000000,70.0000000000,67.0000000000,3.0000000000
1717675020491,34.0000000000,0.0000000000,3.0000000000,70.0000000000,67.0000000000,3.0000000000
1717675020492,34.0000000000,0.0000000000,3.0000000000,69.0000000000,67.0000000000,3.0000000000
1717675020492,34.0000000000,0.0000000000,3.0000000000,68.0000000000,67.0000000000,3.0000000000
1717675020492,33.0000000000,0.0000000000,3.0000000000,68.0000000000,67.0000000000,3.0000000000
1717675020492,33.0000000000,0.0000000000,3.0000000000,68.0000000000,67.0000000000,3.0000000000
1717675020493,33.0000000000,0.0000000000,3.0000000000,67.0000000000,66.0000000000,3.0000000000
1717675020493,33.0000000000,0.0000000000,3.0000000000,67.0000000000,131.0000000000,3.0000000000
1717675020493,33.0000000000,0.0000000000,3.0000000000,67.0000000000,137.0000000000,3.0000000000
1717675020494,33.0000000000,0.0000000000,3.0000000000,67.0000000000,135.0000000000,3.0000000000
1717675020494,33.0000000000,0.0000000000,3.0000000000,67.0000000000,135.0000000000,3.0000000000
1717675020494,32.0000000000,0.0000000000,3.0000000000,65.0000000000,135.0000000000,3.0000000000
1717675020494,32.0000000000,0.0000000000,3.0000000000,65.0000000000,134.0000000000,3.0000000000
1717675020495,32.0000000000,0.0000000000,3.0000000000,65.0000000000,132.0000000000,3.0000000000
1717675020516,32.0000000000,0.0000000000,3.0000000000,66.0000000000,132.0000000000,3.0000000000
1717675020516,33.0000000000,0.0000000000,3.0000000000,65.0000000000,131.0000000000,3.0000000000
1717675020516,33.0000000000,0.0000000000,2.0000000000,65.0000000000,131.0000000000,3.0000000000
1717675020516,33.0000000000,0.0000000000,3.0000000000,64.0000000000,130.0000000000,3.0000000000
1717675020517,32.0000000000,0.0000000000,3.0000000000,63.0000000000,129.0000000000,2.0000000000
1717675020517,31.0000000000,0.0000000000,2.0000000000,63.0000000000,129.0000000000,2.0000000000
1717675020517,32.0000000000,0.0000000000,3.0000000000,63.0000000000,127.0000000000,3.0000000000
1717675020517,31.0000000000,0.0000000000,3.0000000000,63.0000000000,127.0000000000,3.0000000000
1717675020517,31.0000000000,0.0000000000,3.0000000000,63.0000000000,127.0000000000,3.0000000000
1717675020517,31.0000000000,0.0000000000,3.0000000000,63.0000000000,126.0000000000,3.0000000000
1717675020517,31.0000000000,0.0000000000,3.0000000000,62.0000000000,125.0000000000,2.0000000000
1717675020517,31.0000000000,0.0000000000,3.0000000000,62.0000000000,125.0000000000,3.0000000000
1717675020517,31.0000000000,0.0000000000,3.0000000000,62.0000000000,124.0000000000,3.0000000000
1717675020517,31.0000000000,0.0000000000,3.0000000000,143.0000000000,124.0000000000,3.0000000000
1717675020518,33.0000000000,0.0000000000,3.0000000000,163.0000000000,123.0000000000,4.0000000000
1717675020518,33.0000000000,0.0000000000,3.0000000000,162.0000000000,123.0000000000,4.0000000000
1717675020518,33.0000000000,0.0000000000,2.0000000000,161.0000000000,122.0000000000,4.0000000000
1717675020539,33.0000000000,0.0000000000,3.0000000000,159.0000000000,121.0000000000,4.0000000000
1717675020540,33.0000000000,0.0000000000,3.0000000000,159.0000000000,120.0000000000,4.0000000000
1717675020540,32.0000000000,0.0000000000,3.0000000000,158.0000000000,120.0000000000,4.0000000000
1717675020540,33.0000000000,0.0000000000,3.0000000000,157.0000000000,120.0000000000,4.0000000000
1717675020540,32.0000000000,0.0000000000,3.0000000000,156.0000000000,119.0000000000,3.0000000000
1717675020541,32.0000000000,0.0000000000,3.0000000000,156.0000000000,119.0000000000,3.0000000000
1717675020541,32.0000000000,0.0000000000,3.0000000000,154.0000000000,118.0000000000,4.0000000000
1717675020541,31.0000000000,0.0000000000,3.0000000000,153.0000000000,118.0000000000,3.0000000000
1717675020541,31.0000000000,0.0000000000,3.0000000000,152.0000000000,116.0000000000,4.0000000000
1717675020541,31.0000000000,0.0000000000,3.0000000000,152.0000000000,116.0000000000,4.0000000000
1717675020541,36.0000000000,0.0000000000,3.0000000000,151.0000000000,115.0000000000,4.0000000000
1717675020541,36.0000000000,0.0000000000,3.0000000000,151.0000000000,115.0000000000,3.0000000000
1717675020541,35.0000000000,0.0000000000,3.0000000000,149.0000000000,114.0000000000,4.0000000000
1717675020541,35.0000000000,0.0000000000,3.0000000000,148.0000000000,113.0000000000,4.0000000000
1717675020541,35.0000000000,0.0000000000,3.0000000000,148.0000000000,113.0000000000,3.0000000000
1717675020542,35.0000000000,0.0000000000,2.0000000000,147.0000000000,112.0000000000,3.0000000000
1717675020555,35.0000000000,0.0000000000,3.0000000000,146.0000000000,112.0000000000,3.0000000000
1717675020555,35.0000000000,0.0000000000,2.0000000000,145.0000000000,111.0000000000,4.0000000000
1717675020556,35.0000000000,0.0000000000,3.0000000000,144.0000000000,111.0000000000,3.0000000000
1717675020556,35.0000000000,0.0000000000,3.0000000000,143.0000000000,110.0000000000,3.0000000000
1717675020556,34.0000000000,0.0000000000,2.0000000000,143.0000000000,110.0000000000,3.0000000000
1717675020556,34.0000000000,0.0000000000,2.0000000000,143.0000000000,110.0000000000,3.0000000000
1717675020556,33.0000000000,0.0000000000,3.0000000000,142.0000000000,108.0000000000,3.0000000000
1717675020556,39.0000000000,0.0000000000,3.0000000000,141.0000000000,108.0000000000,3.0000000000
1717675020556,49.0000000000,0.0000000000,3.0000000000,140.0000000000,108.0000000000,3.0000000000
1717675020556,48.0000000000,0.0000000000,2.0000000000,140.0000000000,107.0000000000,3.0000000000
1717675020556,48.0000000000,0.0000000000,2.0000000000,139.0000000000,107.0000000000,3.0000000000
1717675020573,48.0000000000,0.0000000000,2.0000000000,137.0000000000,106.0000000000,3.0000000000
1717675020573,47.0000000000,0.0000000000,2.0000000000,136.0000000000,105.0000000000,3.0000000000
1717675020573,47.0000000000,0.0000000000,2.0000000000,136.0000000000,105.0000000000,3.0000000000
1717675020574,47.0000000000,0.0000000000,2.0000000000,135.0000000000,103.0000000000,3.0000000000
1717675020574,46.0000000000,0.0000000000,2.0000000000,135.0000000000,103.0000000000,3.0000000000
1717675020574,46.0000000000,0.0000000000,2.0000000000,134.0000000000,103.0000000000,3.0000000000
1717675020574,46.0000000000,0.0000000000,2.0000000000,134.0000000000,103.0000000000,3.0000000000
1717675020574,46.0000000000,0.0000000000,2.0000000000,132.0000000000,103.0000000000,3.0000000000
1717675020574,46.0000000000,0.0000000000,3.0000000000,132.0000000000,102.0000000000,3.0000000000
1717675020574,44.0000000000,0.0000000000,2.0000000000,131.0000000000,102.0000000000,3.0000000000
1717675020574,45.0000000000,0.0000000000,3.0000000000,131.0000000000,101.0000000000,3.0000000000
1717675020589,44.0000000000,0.0000000000,2.0000000000,131.0000000000,100.0000000000,3.0000000000
1717675020591,44.0000000000,0.0000000000,2.0000000000,130.0000000000,100.0000000000,3.0000000000
1717675020591,44.0000000000,0.0000000000,2.0000000000,129.0000000000,99.0000000000,3.0000000000
1717675020591,43.0000000000,0.0000000000,1.0000000000,128.0000000000,99.0000000000,3.0000000000
1717675020591,44.0000000000,0.0000000000,1.0000000000,127.0000000000,99.0000000000,3.0000000000
1717675020592,43.0000000000,0.0000000000,3.0000000000,127.0000000000,99.0000000000,3.0000000000
1717675020592,43.0000000000,0.0000000000,3.0000000000,126.0000000000,97.0000000000,3.0000000000
1717675020592,43.0000000000,0.0000000000,2.0000000000,126.0000000000,97.0000000000,3.0000000000
1717675020593,43.0000000000,0.0000000000,2.0000000000,126.0000000000,97.0000000000,3.0000000000
1717675020593,43.0000000000,0.0000000000,2.0000000000,125.0000000000,97.0000000000,3.0000000000
1717675020593,42.0000000000,0.0000000000,2.0000000000,124.0000000000,96.0000000000,3.0000000000
1717675020595,42.0000000000,0.0000000000,2.0000000000,124.0000000000,96.0000000000,3.0000000000
1717675020595,43.0000000000,0.0000000000,2.0000000000,123.0000000000,95.0000000000,2.0000000000
1717675020595,43.0000000000,0.0000000000,2.0000000000,123.0000000000,95.0000000000,3.0000000000
1717675020624,43.0000000000,0.0000000000,2.0000000000,121.0000000000,94.0000000000,3.0000000000
1717675020625,43.0000000000,0.0000000000,2.0000000000,121.0000000000,94.0000000000,3.0000000000
1717675020625,42.0000000000,0.0000000000,2.0000000000,120.0000000000,94.0000000000,3.0000000000
1717675020626,42.0000000000,0.0000000000,1.0000000000,120.0000000000,94.0000000000,3.0000000000
1717675020626,41.0000000000,0.0000000000,2.0000000000,120.0000000000,92.0000000000,3.0000000000
1717675020626,41.0000000000,0.0000000000,2.0000000000,119.0000000000,92.0000000000,3.0000000000
1717675020627,41.0000000000,0.0000000000,1.0000000000,118.0000000000,92.0000000000,3.0000000000
1717675020627,41.0000000000,0.0000000000,2.0000000000,118.0000000000,91.0000000000,2.0000000000
1717675020627,40.0000000000,0.0000000000,1.0000000000,118.0000000000,91.0000000000,3.0000000000
1717675020627,39.0000000000,0.0000000000,2.0000000000,118.0000000000,91.0000000000,3.0000000000
1717675020627,39.0000000000,0.0000000000,1.0000000000,116.0000000000,91.0000000000,3.0000000000
1717675020628,39.0000000000,0.0000000000,2.0000000000,115.0000000000,90.0000000000,3.0000000000
1717675020628,39.0000000000,0.0000000000,2.0000000000,115.0000000000,89.0000000000,3.0000000000
1717675020628,39.0000000000,0.0000000000,2.0000000000,115.0000000000,88.0000000000,3.0000000000
1717675020628,39.0000000000,0.0000000000,2.0000000000,114.0000000000,88.0000000000,2.0000000000
1717675020629,39.0000000000,0.0000000000,1.0000000000,113.0000000000,88.0000000000,3.0000000000
1717675020629,39.0000000000,0.0000000000,1.0000000000,113.0000000000,88.0000000000,2.0000000000
1717675020629,39.0000000000,0.0000000000,1.0000000000,112.0000000000,88.0000000000,3.0000000000
1717675020629,39.0000000000,0.0000000000,1.0000000000,112.0000000000,88.0000000000,3.0000000000
1717675020630,39.0000000000,0.0000000000,1.0000000000,112.0000000000,87.0000000000,2.0000000000
1717675020630,39.0000000000,0.0000000000,2.0000000000,111.0000000000,86.0000000000,2.0000000000
1717675020630,39.0000000000,0.0000000000,2.0000000000,111.0000000000,86.0000000000,2.0000000000
1717675020631,38.0000000000,0.0000000000,2.0000000000,110.0000000000,85.0000000000,3.0000000000
1717675020631,38.0000000000,0.0000000000,2.0000000000,110.0000000000,86.0000000000,3.0000000000
1717675020631,38.0000000000,0.0000000000,1.0000000000,109.0000000000,85.0000000000,2.0000000000
1717675020649,38.0000000000,0.0000000000,2.0000000000,108.0000000000,84.0000000000,3.0000000000
1717675020650,43.0000000000,0.0000000000,2.0000000000,108.0000000000,84.0000000000,3.0000000000
1717675020650,42.0000000000,0.0000000000,1.0000000000,108.0000000000,83.0000000000,2.0000000000
1717675020650,42.0000000000,0.0000000000,2.0000000000,107.0000000000,83.0000000000,3.0000000000
1717675020650,41.0000000000,0.0000000000,2.0000000000,107.0000000000,83.0000000000,2.0000000000
1717675020651,41.0000000000,0.0000000000,1.0000000000,106.0000000000,82.0000000000,2.0000000000
1717675020651,41.0000000000,0.0000000000,2.0000000000,105.0000000000,124.0000000000,3.0000000000
1717675020651,41.0000000000,0.0000000000,2.0000000000,105.0000000000,140.0000000000,3.0000000000
1717675020651,41.0000000000,0.0000000000,2.0000000000,104.0000000000,140.0000000000,3.0000000000
1717675020651,40.0000000000,0.0000000000,1.0000000000,103.0000000000,139.0000000000,3.0000000000
1717675020651,39.0000000000,0.0000000000,2.0000000000,103.0000000000,137.0000000000,2.0000000000
1717675020651,39.0000000000,0.0000000000,2.0000000000,103.0000000000,136.0000000000,3.0000000000
1717675020652,39.0000000000,0.0000000000,1.0000000000,103.0000000000,135.0000000000,2.0000000000
1717675020652,39.0000000000,0.0000000000,1.0000000000,102.0000000000,135.0000000000,3.0000000000
1717675020667,39.0000000000,0.0000000000,1.0000000000,102.0000000000,135.0000000000,3.0000000000
1717675020668,39.0000000000,0.0000000000,1.0000000000,102.0000000000,134.0000000000,2.0000000000
1717675020668,39.0000000000,0.0000000000,1.0000000000,101.0000000000,133.0000000000,3.0000000000
1717675020668,39.0000000000,0.0000000000,2.0000000000,100.0000000000,132.0000000000,2.0000000000
1717675020668,39.0000000000,0.0000000000,1.0000000000,99.0000000000,131.0000000000,2.0000000000
1717675020668,39.0000000000,0.0000000000,2.0000000000,99.0000000000,131.0000000000,2.0000000000
1717675020668,38.0000000000,0.0000000000,1.0000000000,99.0000000000,131.0000000000,3.0000000000
1717675020669,38.0000000000,0.0000000000,1.0000000000,98.0000000000,129.0000000000,2.0000000000
1717675020669,38.0000000000,0.0000000000,1.0000000000,98.0000000000,129.0000000000,2.0000000000
1717675020669,38.0000000000,0.0000000000,2.0000000000,98.0000000000,128.0000000000,2.0000000000
1717675020669,38.0000000000,0.0000000000,1.0000000000,97.0000000000,127.0000000000,3.0000000000
1717675020690,37.0000000000,0.0000000000,1.0000000000,97.0000000000,127.0000000000,2.0000000000
1717675020691,37.0000000000,0.0000000000,2.0000000000,96.0000000000,127.0000000000,3.0000000000
1717675020691,37.0000000000,0.0000000000,2.0000000000,96.0000000000,126.0000000000,3.0000000000
1717675020691,39.0000000000,0.0000000000,1.0000000000,96.0000000000,126.0000000000,2.0000000000
1717675020691,39.0000000000,0.0000000000,2.0000000000,95.0000000000,125.0000000000,3.0000000000
1717675020691,38.0000000000,0.0000000000,2.0000000000,95.0000000000,124.0000000000,2.0000000000
1717675020691,38.0000000000,0.0000000000,1.0000000000,94.0000000000,124.0000000000,2.0000000000
1717675020691,38.0000000000,0.0000000000,1.0000000000,94.0000000000,123.0000000000,2.0000000000
1717675020691,37.0000000000,0.0000000000,1.0000000000,93.0000000000,123.0000000000,2.0000000000
1717675020691,37.0000000000,0.0000000000,1.0000000000,93.0000000000,121.0000000000,2.0000000000
1717675020691,38.0000000000,0.0000000000,1.0000000000,92.0000000000,121.0000000000,2.0000000000
1717675020691,37.0000000000,0.0000000000,1.0000000000,92.0000000000,121.0000000000,2.0000000000
1717675020692,37.0000000000,0.0000000000,1.0000000000,92.0000000000,120.0000000000,2.0000000000
1717675020692,36.0000000000,0.0000000000,1.0000000000,92.0000000000,119.0000000000,2.0000000000
1717675020692,36.0000000000,0.0000000000,1.0000000000,91.0000000000,119.0000000000,2.0000000000
1717675020692,35.0000000000,0.0000000000,1.0000000000,91.0000000000,119.0000000000,2.0000000000
1717675020692,35.0000000000,0.0000000000,1.0000000000,90.0000000000,118.0000000000,3.0000000000
1717675020708,41.0000000000,0.0000000000,1.0000000000,89.0000000000,118.0000000000,3.0000000000
1717675020709,41.0000000000,0.0000000000,1.0000000000,89.0000000000,116.0000000000,3.0000000000
1717675020710,40.0000000000,0.0000000000,1.0000000000,89.0000000000,116.0000000000,3.0000000000
1717675020710,40.0000000000,0.0000000000,1.0000000000,88.0000000000,115.0000000000,3.0000000000
1717675020710,39.0000000000,0.0000000000,1.0000000000,88.0000000000,115.0000000000,3.0000000000
1717675020710,39.0000000000,0.0000000000,1.0000000000,88.0000000000,114.0000000000,3.0000000000
1717675020711,39.0000000000,0.0000000000,1.0000000000,88.0000000000,196.0000000000,3.0000000000
1717675020711,39.0000000000,0.0000000000,1.0000000000,87.0000000000,194.0000000000,3.0000000000
1717675020711,39.0000000000,0.0000000000,1.0000000000,86.0000000000,193.0000000000,3.0000000000
1717675020712,39.0000000000,0.0000000000,1.0000000000,87.0000000000,192.0000000000,3.0000000000
1717675020712,39.0000000000,0.0000000000,1.0000000000,86.0000000000,191.0000000000,3.0000000000
1717675020712,39.0000000000,0.0000000000,1.0000000000,86.0000000000,190.0000000000,3.0000000000
1717675020712,39.0000000000,0.0000000000,1.0000000000,85.0000000000,188.0000000000,3.0000000000
1717675020712,46.0000000000,0.0000000000,1.0000000000,84.0000000000,188.0000000000,3.0000000000
1717675020731,45.0000000000,0.0000000000,1.0000000000,84.0000000000,187.0000000000,3.0000000000
1717675020732,45.0000000000,0.0000000000,1.0000000000,83.0000000000,185.0000000000,3.0000000000
1717675020732,45.0000000000,0.0000000000,1.0000000000,83.0000000000,184.0000000000,3.0000000000
1717675020732,44.0000000000,0.0000000000,1.0000000000,83.0000000000,184.0000000000,3.0000000000
1717675020732,44.0000000000,0.0000000000,1.0000000000,83.0000000000,183.0000000000,3.0000000000
1717675020732,44.0000000000,0.0000000000,1.0000000000,83.0000000000,182.0000000000,3.0000000000
1717675020733,44.0000000000,0.0000000000,1.0000000000,82.0000000000,180.0000000000,3.0000000000
1717675020733,43.0000000000,0.0000000000,1.0000000000,81.0000000000,179.0000000000,3.0000000000
1717675020733,43.0000000000,0.0000000000,1.0000000000,81.0000000000,179.0000000000,3.0000000000
1717675020733,43.0000000000,0.0000000000,1.0000000000,81.0000000000,178.0000000000,3.0000000000
1717675020733,43.0000000000,0.0000000000,1.0000000000,80.0000000000,177.0000000000,3.0000000000
1717675020733,43.0000000000,0.0000000000,1.0000000000,80.0000000000,176.0000000000,3.0000000000
1717675020734,43.0000000000,0.0000000000,1.0000000000,79.0000000000,175.0000000000,3.0000000000
1717675020734,42.0000000000,0.0000000000,1.0000000000,79.0000000000,175.0000000000,3.0000000000
1717675020750,41.0000000000,0.0000000000,1.0000000000,79.0000000000,174.0000000000,3.0000000000
1717675020751,42.0000000000,0.0000000000,1.0000000000,79.0000000000,173.0000000000,3.0000000000
1717675020751,41.0000000000,0.0000000000,1.0000000000,79.0000000000,172.0000000000,3.0000000000
1717675020752,41.0000000000,0.0000000000,1.0000000000,78.0000000000,172.0000000000,3.0000000000
1717675020752,41.0000000000,0.0000000000,1.0000000000,78.0000000000,171.0000000000,3.0000000000
1717675020752,41.0000000000,0.0000000000,1.0000000000,78.0000000000,170.0000000000,3.0000000000
1717675020752,41.0000000000,0.0000000000,1.0000000000,77.0000000000,168.0000000000,2.0000000000
1717675020752,40.0000000000,0.0000000000,1.0000000000,76.0000000000,167.0000000000,3.0000000000
1717675020753,40.0000000000,0.0000000000,1.0000000000,76.0000000000,167.0000000000,2.0000000000
1717675020753,39.0000000000,0.0000000000,1.0000000000,76.0000000000,167.0000000000,2.0000000000
1717675020753,39.0000000000,0.0000000000,1.0000000000,76.0000000000,166.0000000000,2.0000000000
1717675020753,39.0000000000,0.0000000000,1.0000000000,76.0000000000,165.0000000000,2.0000000000
1717675020753,39.0000000000,0.0000000000,1.0000000000,76.0000000000,164.0000000000,3.0000000000
1717675020754,39.0000000000,0.0000000000,1.0000000000,75.0000000000,163.0000000000,3.0000000000
1717675020774,39.0000000000,0.0000000000,1.0000000000,75.0000000000,163.0000000000,2.0000000000
1717675020777,39.0000000000,0.0000000000,0.0000000000,74.0000000000,162.0000000000,3.0000000000
1717675020777,39.0000000000,0.0000000000,1.0000000000,73.0000000000,161.0000000000,2.0000000000
1717675020778,39.0000000000,0.0000000000,1.0000000000,73.0000000000,161.0000000000,2.0000000000
1717675020778,39.0000000000,0.0000000000,0.0000000000,73.0000000000,159.0000000000,2.0000000000
1717675020778,38.0000000000,0.0000000000,1.0000000000,73.0000000000,159.0000000000,2.0000000000
1717675020779,38.0000000000,0.0000000000,0.0000000000,72.0000000000,159.0000000000,2.0000000000
1717675020779,38.0000000000,0.0000000000,1.0000000000,71.0000000000,158.0000000000,2.0000000000
1717675020779,38.0000000000,0.0000000000,1.0000000000,71.0000000000,156.0000000000,3.0000000000
1717675020779,38.0000000000,0.0000000000,1.0000000000,71.0000000000,156.0000000000,2.0000000000
1717675020779,37.0000000000,0.0000000000,1.0000000000,71.0000000000,156.0000000000,2.0000000000
1717675020779,38.0000000000,0.0000000000,0.0000000000,71.0000000000,155.0000000000,2.0000000000
1717675020780,37.0000000000,0.0000000000,1.0000000000,71.0000000000,153.0000000000,2.0000000000
1717675020780,39.0000000000,0.0000000000,1.0000000000,70.0000000000,153.0000000000,2.0000000000
1717675020780,39.0000000000,0.0000000000,1.0000000000,70.0000000000,152.0000000000,2.0000000000
1717675020780,39.0000000000,0.0000000000,1.0000000000,70.0000000000,152.0000000000,2.0000000000
1717675020780,39.0000000000,0.0000000000,0.0000000000,69.0000000000,152.0000000000,2.0000000000
1717675020809,39.0000000000,0.0000000000,1.0000000000,70.0000000000,151.0000000000,2.0000000000
1717675020810,39.0000000000,0.0000000000,1.0000000000,68.0000000000,150.0000000000,2.0000000000
1717675020811,39.0000000000,0.0000000000,1.0000000000,69.0000000000,150.0000000000,2.0000000000
1717675020811,39.0000000000,0.0000000000,1.0000000000,68.0000000000,149.0000000000,2.0000000000
1717675020811,39.0000000000,0.0000000000,0.0000000000,67.0000000000,148.0000000000,2.0000000000
1717675020811,39.0000000000,0.0000000000,0.0000000000,67.0000000000,147.0000000000,2.0000000000
1717675020811,39.0000000000,0.0000000000,1.0000000000,67.0000000000,146.0000000000,2.0000000000
1717675020812,39.0000000000,0.0000000000,0.0000000000,67.0000000000,146.0000000000,1.0000000000
1717675020812,38.0000000000,0.0000000000,1.0000000000,67.0000000000,145.0000000000,2.0000000000
1717675020812,52.0000000000,0.0000000000,1.0000000000,67.0000000000,145.0000000000,2.0000000000
1717675020813,59.0000000000,0.0000000000,1.0000000000,66.0000000000,143.0000000000,1.0000000000
1717675020813,59.0000000000,0.0000000000,1.0000000000,65.0000000000,143.0000000000,3.0000000000
1717675020813,58.0000000000,0.0000000000,1.0000000000,66.0000000000,172.0000000000,3.0000000000
1717675020813,58.0000000000,0.0000000000,1.0000000000,65.0000000000,255.0000000000,2.0000000000
1717675020814,57.0000000000,0.0000000000,1.0000000000,65.0000000000,254.0000000000,2.0000000000
1717675020814,57.0000000000,0.0000000000,1.0000000000,65.0000000000,252.0000000000,2.0000000000
1717675020814,56.0000000000,0.0000000000,3.0000000000,64.0000000000,251.0000000000,3.0000000000
1717675020814,56.0000000000,0.0000000000,7.0000000000,63.0000000000,249.0000000000,3.0000000000
1717675020814,56.0000000000,0.0000000000,7.0000000000,63.0000000000,248.0000000000,2.0000000000
1717675020814,56.0000000000,0.0000000000,7.0000000000,63.0000000000,246.0000000000,2.0000000000
1717675020814,56.0000000000,0.0000000000,7.0000000000,63.0000000000,244.0000000000,2.0000000000
1717675020815,56.0000000000,0.0000000000,7.0000000000,63.0000000000,243.0000000000,4.0000000000
1717675020815,56.0000000000,0.0000000000,7.0000000000,63.0000000000,242.0000000000,105.0000000000
1717675020815,59.0000000000,0.0000000000,7.0000000000,63.0000000000,240.0000000000,108.0000000000
1717675020815,63.0000000000,0.0000000000,7.0000000000,62.0000000000,240.0000000000,108.0000000000
1717675020831,62.0000000000,0.0000000000,7.0000000000,62.0000000000,238.0000000000,106.0000000000
1717675020832,62.0000000000,0.0000000000,7.0000000000,62.0000000000,236.0000000000,105.0000000000
1717675020832,61.0000000000,0.0000000000,7.0000000000,61.0000000000,235.0000000000,105.0000000000
1717675020832,61.0000000000,0.0000000000,7.0000000000,61.0000000000,298.0000000000,103.0000000000
1717675020832,60.0000000000,0.0000000000,7.0000000000,66.0000000000,369.0000000000,103.0000000000
1717675020833,60.0000000000,0.0000000000,7.0000000000,65.0000000000,366.0000000000,103.0000000000
1717675020833,60.0000000000,0.0000000000,7.0000000000,65.0000000000,363.0000000000,102.0000000000
1717675020833,60.0000000000,0.0000000000,7.0000000000,63.0000000000,359.0000000000,102.0000000000
1717675020833,59.0000000000,0.0000000000,7.0000000000,63.0000000000,358.0000000000,100.0000000000
1717675020833,59.0000000000,0.0000000000,7.0000000000,63.0000000000,355.0000000000,100.0000000000
1717675020833,59.0000000000,0.0000000000,7.0000000000,63.0000000000,352.0000000000,100.0000000000
1717675020850,60.0000000000,0.0000000000,7.0000000000,63.0000000000,350.0000000000,99.0000000000
1717675020852,60.0000000000,0.0000000000,7.0000000000,63.0000000000,348.0000000000,98.0000000000
1717675020852,60.0000000000,0.0000000000,7.0000000000,62.0000000000,346.0000000000,98.0000000000
1717675020853,60.0000000000,0.0000000000,7.0000000000,62.0000000000,344.0000000000,97.0000000000
1717675020853,60.0000000000,0.0000000000,7.0000000000,61.0000000000,342.0000000000,97.0000000000
1717675020854,60.0000000000,0.0000000000,6.0000000000,61.0000000000,339.0000000000,96.0000000000
1717675020854,59.0000000000,0.0000000000,7.0000000000,60.0000000000,338.0000000000,96.0000000000
1717675020854,58.0000000000,0.0000000000,7.0000000000,60.0000000000,335.0000000000,96.0000000000
1717675020854,57.0000000000,0.0000000000,7.0000000000,60.0000000000,334.0000000000,95.0000000000
1717675020854,57.0000000000,0.0000000000,7.0000000000,60.0000000000,332.0000000000,95.0000000000
1717675020856,57.0000000000,0.0000000000,7.0000000000,60.0000000000,329.0000000000,94.0000000000
1717675020856,57.0000000000,0.0000000000,6.0000000000,60.0000000000,327.0000000000,94.0000000000
1717675020856,56.0000000000,0.0000000000,7.0000000000,59.0000000000,326.0000000000,93.0000000000
1717675020856,56.0000000000,0.0000000000,6.0000000000,59.0000000000,324.0000000000,92.0000000000
1717675020857,56.0000000000,0.0000000000,6.0000000000,59.0000000000,322.0000000000,92.0000000000
1717675020857,56.0000000000,0.0000000000,7.0000000000,58.0000000000,321.0000000000,92.0000000000
1717675020871,56.0000000000,0.0000000000,6.0000000000,57.0000000000,319.0000000000,91.0000000000
1717675020872,55.0000000000,0.0000000000,6.0000000000,57.0000000000,317.0000000000,90.0000000000
1717675020872,56.0000000000,0.0000000000,6.0000000000,57.0000000000,316.0000000000,90.0000000000
1717675020873,55.0000000000,0.0000000000,6.0000000000,57.0000000000,314.0000000000,89.0000000000
1717675020873,55.0000000000,0.0000000000,7.0000000000,56.0000000000,312.0000000000,89.0000000000
1717675020873,54.0000000000,0.0000000000,7.0000000000,57.0000000000,310.0000000000,88.0000000000
1717675020873,54.0000000000,0.0000000000,7.0000000000,56.0000000000,308.0000000000,88.0000000000
1717675020873,54.0000000000,0.0000000000,7.0000000000,56.0000000000,307.0000000000,88.0000000000
1717675020873,53.0000000000,0.0000000000,7.0000000000,56.0000000000,305.0000000000,88.0000000000
1717675020874,52.0000000000,0.0000000000,7.0000000000,56.0000000000,303.0000000000,87.0000000000
1717675020888,52.0000000000,0.0000000000,7.0000000000,56.0000000000,302.0000000000,87.0000000000
1717675020889,51.0000000000,0.0000000000,7.0000000000,55.0000000000,300.0000000000,86.0000000000
1717675020889,52.0000000000,0.0000000000,7.0000000000,56.0000000000,299.0000000000,86.0000000000
1717675020889,52.0000000000,0.0000000000,6.0000000000,55.0000000000,297.0000000000,85.0000000000
1717675020889,51.0000000000,0.0000000000,7.0000000000,55.0000000000,295.0000000000,85.0000000000
1717675020889,51.0000000000,0.0000000000,6.0000000000,54.0000000000,294.0000000000,84.0000000000
1717675020890,51.0000000000,0.0000000000,7.0000000000,54.0000000000,292.0000000000,84.0000000000
1717675020890,51.0000000000,0.0000000000,7.0000000000,54.0000000000,291.0000000000,83.0000000000
1717675020890,50.0000000000,0.0000000000,8.0000000000,54.0000000000,289.0000000000,83.0000000000
1717675020890,50.0000000000,0.0000000000,8.0000000000,54.0000000000,287.0000000000,83.0000000000
1717675020890,49.0000000000,0.0000000000,7.0000000000,52.0000000000,286.0000000000,82.0000000000
1717675020904,50.0000000000,0.0000000000,7.0000000000,99.0000000000,285.0000000000,82.0000000000
1717675020904,49.0000000000,0.0000000000,8.0000000000,140.0000000000,283.0000000000,82.0000000000
1717675020905,49.0000000000,0.0000000000,7.0000000000,139.0000000000,282.0000000000,81.0000000000
1717675020905,49.0000000000,0.0000000000,8.0000000000,138.0000000000,280.0000000000,80.0000000000
1717675020905,49.0000000000,0.0000000000,7.0000000000,137.0000000000,279.0000000000,80.0000000000
1717675020905,48.0000000000,0.0000000000,7.0000000000,136.0000000000,278.0000000000,79.0000000000
1717675020906,48.0000000000,0.0000000000,7.0000000000,135.0000000000,364.0000000000,79.0000000000
1717675020906,48.0000000000,0.0000000000,7.0000000000,135.0000000000,359.0000000000,79.0000000000
1717675020906,47.0000000000,0.0000000000,7.0000000000,134.0000000000,356.0000000000,79.0000000000
1717675020906,47.0000000000,0.0000000000,7.0000000000,133.0000000000,355.0000000000,78.0000000000
1717675020922,47.0000000000,0.0000000000,7.0000000000,132.0000000000,352.0000000000,78.0000000000
1717675020923,47.0000000000,0.0000000000,7.0000000000,131.0000000000,350.0000000000,78.0000000000
1717675020923,47.0000000000,0.0000000000,7.0000000000,131.0000000000,347.0000000000,77.0000000000
1717675020923,46.0000000000,0.0000000000,7.0000000000,129.0000000000,345.0000000000,77.0000000000
1717675020923,46.0000000000,0.0000000000,7.0000000000,128.0000000000,344.0000000000,76.0000000000
1717675020923,46.0000000000,0.0000000000,7.0000000000,127.0000000000,341.0000000000,76.0000000000
1717675020923,46.0000000000,0.0000000000,7.0000000000,127.0000000000,339.0000000000,76.0000000000
1717675020924,46.0000000000,0.0000000000,7.0000000000,127.0000000000,336.0000000000,75.0000000000
1717675020924,45.0000000000,0.0000000000,7.0000000000,126.0000000000,335.0000000000,75.0000000000
1717675020924,45.0000000000,0.0000000000,7.0000000000,125.0000000000,333.0000000000,75.0000000000
1717675020937,44.0000000000,0.0000000000,7.0000000000,124.0000000000,330.0000000000,73.0000000000
1717675020937,44.0000000000,0.0000000000,7.0000000000,124.0000000000,327.0000000000,73.0000000000
1717675020937,44.0000000000,0.0000000000,7.0000000000,124.0000000000,327.0000000000,72.0000000000
1717675020938,44.0000000000,0.0000000000,7.0000000000,123.0000000000,324.0000000000,73.0000000000
1717675020938,44.0000000000,0.0000000000,7.0000000000,121.0000000000,322.0000000000,72.0000000000
1717675020938,43.0000000000,0.0000000000,7.0000000000,121.0000000000,319.0000000000,71.0000000000
1717675020938,43.0000000000,0.0000000000,7.0000000000,120.0000000000,319.0000000000,71.0000000000
1717675020938,44.0000000000,0.0000000000,7.0000000000,120.0000000000,317.0000000000,71.0000000000
1717675020938,43.0000000000,0.0000000000,6.0000000000,120.0000000000,315.0000000000,71.0000000000
1717675020939,43.0000000000,0.0000000000,7.0000000000,119.0000000000,312.0000000000,71.0000000000
1717675020951,43.0000000000,0.0000000000,6.0000000000,118.0000000000,312.0000000000,71.0000000000
1717675020952,42.0000000000,0.0000000000,7.0000000000,118.0000000000,310.0000000000,70.0000000000
1717675020952,42.0000000000,0.0000000000,7.0000000000,116.0000000000,307.0000000000,70.0000000000
1717675020952,41.0000000000,0.0000000000,7.0000000000,115.0000000000,305.0000000000,69.0000000000
1717675020952,41.0000000000,0.0000000000,7.0000000000,115.0000000000,304.0000000000,68.0000000000
1717675020952,41.0000000000,0.0000000000,7.0000000000,115.0000000000,303.0000000000,68.0000000000
1717675020953,40.0000000000,0.0000000000,7.0000000000,114.0000000000,300.0000000000,68.0000000000
1717675020953,40.0000000000,0.0000000000,7.0000000000,113.0000000000,299.0000000000,68.0000000000
1717675020967,40.0000000000,0.0000000000,7.0000000000,113.0000000000,297.0000000000,67.0000000000
1717675020968,39.0000000000,0.0000000000,7.0000000000,112.0000000000,295.0000000000,67.0000000000
1717675020968,39.0000000000,0.0000000000,6.0000000000,112.0000000000,294.0000000000,67.0000000000
1717675020968,39.0000000000,0.0000000000,7.0000000000,111.0000000000,292.0000000000,66.0000000000
1717675020968,39.0000000000,0.0000000000,7.0000000000,111.0000000000,291.0000000000,66.0000000000
1717675020968,39.0000000000,0.0000000000,6.0000000000,110.0000000000,289.0000000000,65.0000000000
1717675020968,39.0000000000,0.0000000000,6.0000000000,109.0000000000,287.0000000000,65.0000000000
1717675020969,39.0000000000,0.0000000000,6.0000000000,108.0000000000,286.0000000000,65.0000000000
1717675020969,39.0000000000,0.0000000000,7.0000000000,108.0000000000,284.0000000000,65.0000000000
1717675020969,39.0000000000,0.0000000000,6.0000000000,108.0000000000,283.0000000000,65.0000000000
1717675020984,38.0000000000,0.0000000000,7.0000000000,107.0000000000,281.0000000000,63.0000000000
1717675020986,38.0000000000,0.0000000000,6.0000000000,107.0000000000,280.0000000000,63.0000000000
1717675020986,38.0000000000,0.0000000000,7.0000000000,105.0000000000,279.0000000000,63.0000000000
1717675020986,38.0000000000,0.0000000000,6.0000000000,105.0000000000,276.0000000000,63.0000000000
1717675020986,38.0000000000,0.0000000000,7.0000000000,105.0000000000,275.0000000000,63.0000000000
1717675020987,38.0000000000,0.0000000000,7.0000000000,104.0000000000,274.0000000000,63.0000000000
1717675020987,38.0000000000,0.0000000000,6.0000000000,103.0000000000,272.0000000000,63.0000000000
1717675020987,38.0000000000,0.0000000000,6.0000000000,103.0000000000,271.0000000000,62.0000000000
1717675020987,37.0000000000,0.0000000000,6.0000000000,103.0000000000,330.0000000000,63.0000000000
1717675020988,36.0000000000,0.0000000000,6.0000000000,102.0000000000,327.0000000000,62.0000000000
1717675020988,36.0000000000,0.0000000000,6.0000000000,102.0000000000,385.0000000000,62.0000000000
1717675020988,36.0000000000,0.0000000000,6.0000000000,100.0000000000,382.0000000000,62.0000000000
1717675020989,36.0000000000,0.0000000000,7.0000000000,100.0000000000,378.0000000000,81.0000000000
1717675021019,36.0000000000,0.0000000000,7.0000000000,99.0000000000,376.0000000000,81.0000000000
1717675021019,36.0000000000,0.0000000000,7.0000000000,99.0000000000,374.0000000000,80.0000000000
1717675021020,36.0000000000,0.0000000000,7.0000000000,99.0000000000,371.0000000000,79.0000000000
1717675021020,35.0000000000,0.0000000000,7.0000000000,99.0000000000,368.0000000000,79.0000000000
1717675021020,35.0000000000,0.0000000000,7.0000000000,98.0000000000,367.0000000000,79.0000000000
1717675021020,35.0000000000,0.0000000000,7.0000000000,98.0000000000,364.0000000000,79.0000000000
1717675021020,35.0000000000,0.0000000000,7.0000000000,97.0000000000,362.0000000000,78.0000000000
1717675021020,35.0000000000,0.0000000000,7.0000000000,96.0000000000,359.0000000000,78.0000000000
1717675021020,34.0000000000,0.0000000000,7.0000000000,96.0000000000,358.0000000000,77.0000000000
1717675021020,34.0000000000,0.0000000000,7.0000000000,96.0000000000,355.0000000000,76.0000000000
1717675021020,34.0000000000,0.0000000000,7.0000000000,96.0000000000,353.0000000000,76.0000000000
1717675021021,34.0000000000,0.0000000000,7.0000000000,95.0000000000,352.0000000000,76.0000000000
1717675021021,33.0000000000,0.0000000000,7.0000000000,95.0000000000,348.0000000000,76.0000000000
1717675021021,33.0000000000,0.0000000000,7.0000000000,94.0000000000,348.0000000000,75.0000000000
1717675021021,33.0000000000,0.0000000000,7.0000000000,119.0000000000,345.0000000000,75.0000000000
1717675021021,33.0000000000,0.0000000000,7.0000000000,118.0000000000,344.0000000000,75.0000000000
1717675021021,33.0000000000,0.0000000000,7.0000000000,116.0000000000,342.0000000000,114.0000000000
1717675021021,33.0000000000,0.0000000000,7.0000000000,116.0000000000,339.0000000000,145.0000000000
1717675021022,32.0000000000,0.0000000000,7.0000000000,115.0000000000,336.0000000000,143.0000000000
1717675021023,32.0000000000,0.0000000000,7.0000000000,114.0000000000,335.0000000000,143.0000000000
1717675021024,32.0000000000,0.0000000000,7.0000000000,113.0000000000,332.0000000000,142.0000000000
1717675021024,32.0000000000,0.0000000000,7.0000000000,113.0000000000,331.0000000000,140.0000000000
1717675021024,31.0000000000,0.0000000000,7.0000000000,112.0000000000,327.0000000000,140.0000000000
1717675021043,31.0000000000,0.0000000000,7.0000000000,112.0000000000,327.0000000000,139.0000000000
1717675021044,31.0000000000,0.0000000000,7.0000000000,147.0000000000,324.0000000000,137.0000000000
1717675021044,31.0000000000,0.0000000000,7.0000000000,146.0000000000,323.0000000000,136.0000000000
1717675021044,31.0000000000,0.0000000000,7.0000000000,145.0000000000,320.0000000000,135.0000000000
1717675021044,31.0000000000,0.0000000000,7.0000000000,143.0000000000,318.0000000000,135.0000000000
1717675021045,31.0000000000,0.0000000000,7.0000000000,143.0000000000,316.0000000000,135.0000000000
1717675021045,31.0000000000,0.0000000000,7.0000000000,142.0000000000,315.0000000000,134.0000000000
1717675021045,31.0000000000,0.0000000000,7.0000000000,141.0000000000,312.0000000000,133.0000000000
1717675021045,31.0000000000,0.0000000000,7.0000000000,142.0000000000,311.0000000000,132.0000000000
1717675021045,30.0000000000,0.0000000000,7.0000000000,140.0000000000,309.0000000000,131.0000000000
1717675021046,30.0000000000,0.0000000000,7.0000000000,140.0000000000,307.0000000000,131.0000000000
1717675021046,30.0000000000,0.0000000000,7.0000000000,139.0000000000,305.0000000000,130.0000000000
1717675021059,30.0000000000,0.0000000000,7.0000000000,137.0000000000,304.0000000000,129.0000000000
1717675021059,30.0000000000,0.0000000000,7.0000000000,137.0000000000,302.0000000000,128.0000000000
1717675021059,29.0000000000,0.0000000000,7.0000000000,135.0000000000,300.0000000000,127.0000000000
1717675021060,29.0000000000,0.0000000000,7.0000000000,135.0000000000,299.0000000000,127.0000000000
1717675021060,30.0000000000,0.0000000000,7.0000000000,134.0000000000,295.0000000000,126.0000000000
1717675021060,29.0000000000,0.0000000000,7.0000000000,134.0000000000,295.0000000000,125.0000000000
1717675021061,29.0000000000,0.0000000000,7.0000000000,133.0000000000,293.0000000000,125.0000000000
1717675021061,29.0000000000,0.0000000000,7.0000000000,132.0000000000,291.0000000000,124.0000000000
1717675021061,28.0000000000,0.0000000000,6.0000000000,131.0000000000,289.0000000000,124.0000000000
1717675021061,28.0000000000,0.0000000000,6.0000000000,131.0000000000,287.0000000000,123.0000000000
1717675021076,28.0000000000,0.0000000000,7.0000000000,130.0000000000,287.0000000000,122.0000000000
1717675021077,28.0000000000,0.0000000000,7.0000000000,129.0000000000,284.0000000000,121.0000000000
1717675021077,28.0000000000,0.0000000000,7.0000000000,128.0000000000,283.0000000000,120.0000000000
1717675021077,28.0000000000,0.0000000000,7.0000000000,127.0000000000,281.0000000000,120.0000000000
1717675021078,28.0000000000,0.0000000000,7.0000000000,127.0000000000,280.0000000000,120.0000000000
1717675021078,28.0000000000,0.0000000000,7.0000000000,126.0000000000,279.0000000000,119.0000000000
1717675021078,28.0000000000,0.0000000000,6.0000000000,126.0000000000,276.0000000000,118.0000000000
1717675021078,27.0000000000,0.0000000000,6.0000000000,125.0000000000,275.0000000000,117.0000000000
1717675021078,27.0000000000,0.0000000000,7.0000000000,124.0000000000,273.0000000000,117.0000000000
1717675021094,27.0000000000,0.0000000000,6.0000000000,123.0000000000,272.0000000000,115.0000000000
1717675021094,27.0000000000,0.0000000000,7.0000000000,123.0000000000,271.0000000000,115.0000000000
1717675021095,27.0000000000,0.0000000000,6.0000000000,121.0000000000,270.0000000000,115.0000000000
1717675021095,26.0000000000,0.0000000000,6.0000000000,121.0000000000,316.0000000000,115.0000000000
1717675021095,26.0000000000,0.0000000000,6.0000000000,121.0000000000,335.0000000000,113.0000000000
1717675021095,26.0000000000,0.0000000000,6.0000000000,120.0000000000,334.0000000000,113.0000000000
1717675021095,26.0000000000,0.0000000000,6.0000000000,120.0000000000,332.0000000000,112.0000000000
1717675021095,26.0000000000,0.0000000000,7.0000000000,172.0000000000,328.0000000000,112.0000000000
1717675021096,26.0000000000,0.0000000000,6.0000000000,170.0000000000,327.0000000000,112.0000000000
1717675021096,25.0000000000,0.0000000000,6.0000000000,169.0000000000,324.0000000000,111.0000000000
1717675021110,25.0000000000,0.0000000000,6.0000000000,167.0000000000,323.0000000000,110.0000000000
1717675021110,25.0000000000,0.0000000000,6.0000000000,167.0000000000,319.0000000000,110.0000000000
1717675021110,25.0000000000,0.0000000000,6.0000000000,166.0000000000,318.0000000000,109.0000000000
1717675021111,25.0000000000,0.0000000000,6.0000000000,164.0000000000,316.0000000000,108.0000000000
1717675021111,25.0000000000,0.0000000000,6.0000000000,163.0000000000,315.0000000000,108.0000000000
1717675021111,24.0000000000,0.0000000000,6.0000000000,163.0000000000,312.0000000000,108.0000000000
1717675021111,25.0000000000,0.0000000000,6.0000000000,161.0000000000,344.0000000000,107.0000000000
1717675021111,24.0000000000,0.0000000000,7.0000000000,160.0000000000,441.0000000000,106.0000000000
1717675021111,24.0000000000,0.0000000000,7.0000000000,159.0000000000,435.0000000000,105.0000000000
1717675021111,24.0000000000,0.0000000000,6.0000000000,159.0000000000,432.0000000000,104.0000000000
1717675021128,24.0000000000,0.0000000000,6.0000000000,158.0000000000,428.0000000000,104.0000000000
1717675021130,24.0000000000,0.0000000000,6.0000000000,157.0000000000,425.0000000000,103.0000000000
1717675021130,24.0000000000,0.0000000000,6.0000000000,156.0000000000,423.0000000000,103.0000000000
1717675021130,24.0000000000,0.0000000000,6.0000000000,155.0000000000,419.0000000000,103.0000000000
1717675021130,24.0000000000,0.0000000000,6.0000000000,153.0000000000,416.0000000000,102.0000000000
1717675021131,24.0000000000,0.0000000000,6.0000000000,153.0000000000,413.0000000000,102.0000000000
1717675021131,24.0000000000,0.0000000000,6.0000000000,152.0000000000,411.0000000000,101.0000000000
1717675021131,23.0000000000,0.0000000000,6.0000000000,152.0000000000,408.0000000000,100.0000000000
1717675021131,24.0000000000,0.0000000000,6.0000000000,150.0000000000,404.0000000000,99.0000000000
1717675021131,24.0000000000,0.0000000000,7.0000000000,149.0000000000,402.0000000000,99.0000000000
1717675021131,23.0000000000,0.0000000000,6.0000000000,148.0000000000,399.0000000000,99.0000000000
1717675021131,23.0000000000,0.0000000000,7.0000000000,147.0000000000,396.0000000000,98.0000000000
1717675021147,23.0000000000,0.0000000000,7.0000000000,147.0000000000,393.0000000000,98.0000000000
1717675021148,23.0000000000,0.0000000000,7.0000000000,146.0000000000,391.0000000000,97.0000000000
1717675021148,23.0000000000,0.0000000000,6.0000000000,145.0000000000,389.0000000000,97.0000000000
1717675021148,23.0000000000,0.0000000000,6.0000000000,144.0000000000,386.0000000000,97.0000000000
1717675021149,22.0000000000,0.0000000000,6.0000000000,143.0000000000,384.0000000000,96.0000000000
1717675021149,23.0000000000,0.0000000000,6.0000000000,143.0000000000,382.0000000000,96.0000000000
1717675021149,22.0000000000,0.0000000000,6.0000000000,142.0000000000,380.0000000000,95.0000000000
1717675021149,22.0000000000,0.0000000000,6.0000000000,142.0000000000,377.0000000000,95.0000000000
1717675021149,22.0000000000,0.0000000000,6.0000000000,141.0000000000,375.0000000000,94.0000000000
1717675021149,22.0000000000,0.0000000000,6.0000000000,140.0000000000,372.0000000000,94.0000000000
1717675021166,22.0000000000,0.0000000000,6.0000000000,140.0000000000,371.0000000000,93.0000000000
1717675021166,22.0000000000,0.0000000000,6.0000000000,138.0000000000,368.0000000000,92.0000000000
1717675021166,22.0000000000,0.0000000000,6.0000000000,137.0000000000,366.0000000000,92.0000000000
1717675021166,22.0000000000,0.0000000000,6.0000000000,136.0000000000,364.0000000000,92.0000000000
1717675021166,22.0000000000,0.0000000000,6.0000000000,135.0000000000,361.0000000000,92.0000000000
1717675021167,21.0000000000,0.0000000000,6.0000000000,135.0000000000,359.0000000000,91.0000000000
1717675021167,21.0000000000,0.0000000000,6.0000000000,135.0000000000,356.0000000000,91.0000000000
1717675021167,21.0000000000,0.0000000000,5.0000000000,134.0000000000,355.0000000000,89.0000000000
1717675021167,21.0000000000,0.0000000000,6.0000000000,134.0000000000,353.0000000000,89.0000000000
1717675021167,21.0000000000,0.0000000000,6.0000000000,132.0000000000,351.0000000000,89.0000000000
1717675021167,21.0000000000,0.0000000000,6.0000000000,132.0000000000,349.0000000000,89.0000000000
1717675021167,20.0000000000,0.0000000000,11.0000000000,131.0000000000,347.0000000000,88.0000000000
1717675021186,20.0000000000,0.0000000000,12.0000000000,131.0000000000,344.0000000000,88.0000000000
1717675021188,20.0000000000,0.0000000000,12.0000000000,129.0000000000,343.0000000000,88.0000000000
1717675021188,20.0000000000,0.0000000000,12.0000000000,129.0000000000,340.0000000000,87.0000000000
1717675021189,20.0000000000,0.0000000000,12.0000000000,128.0000000000,338.0000000000,87.0000000000
1717675021189,20.0000000000,0.0000000000,12.0000000000,127.0000000000,336.0000000000,86.0000000000
1717675021189,20.0000000000,0.0000000000,12.0000000000,127.0000000000,334.0000000000,86.0000000000
1717675021190,20.0000000000,0.0000000000,12.0000000000,127.0000000000,332.0000000000,85.0000000000
1717675021190,20.0000000000,0.0000000000,11.0000000000,126.0000000000,371.0000000000,132.0000000000
1717675021190,19.0000000000,0.0000000000,12.0000000000,125.0000000000,396.0000000000,131.0000000000
1717675021190,20.0000000000,0.0000000000,11.0000000000,124.0000000000,391.0000000000,129.0000000000
1717675021191,19.0000000000,0.0000000000,11.0000000000,124.0000000000,389.0000000000,127.0000000000
1717675021191,19.0000000000,0.0000000000,12.0000000000,123.0000000000,385.0000000000,127.0000000000
1717675021192,19.0000000000,0.0000000000,12.0000000000,123.0000000000,384.0000000000,127.0000000000
1717675021192,19.0000000000,0.0000000000,12.0000000000,121.0000000000,380.0000000000,126.0000000000
1717675021192,19.0000000000,0.0000000000,12.0000000000,127.0000000000,376.0000000000,125.0000000000
1717675021206,19.0000000000,0.0000000000,12.0000000000,194.0000000000,375.0000000000,124.0000000000
1717675021207,18.0000000000,0.0000000000,12.0000000000,192.0000000000,371.0000000000,124.0000000000
1717675021207,19.0000000000,0.0000000000,12.0000000000,190.0000000000,369.0000000000,123.0000000000
1717675021207,19.0000000000,0.0000000000,12.0000000000,189.0000000000,366.0000000000,121.0000000000
1717675021207,19.0000000000,0.0000000000,12.0000000000,188.0000000000,364.0000000000,121.0000000000
1717675021207,19.0000000000,0.0000000000,12.0000000000,186.0000000000,361.0000000000,120.0000000000
1717675021207,18.0000000000,0.0000000000,11.0000000000,184.0000000000,359.0000000000,120.0000000000
1717675021207,18.0000000000,0.0000000000,11.0000000000,184.0000000000,356.0000000000,119.0000000000
1717675021208,18.0000000000,0.0000000000,12.0000000000,183.0000000000,354.0000000000,119.0000000000
1717675021221,18.0000000000,0.0000000000,11.0000000000,181.0000000000,352.0000000000,118.0000000000
1717675021222,18.0000000000,0.0000000000,12.0000000000,180.0000000000,349.0000000000,196.0000000000
1717675021222,19.0000000000,0.0000000000,12.0000000000,179.0000000000,347.0000000000,193.0000000000
1717675021222,19.0000000000,0.0000000000,11.0000000000,177.0000000000,344.0000000000,192.0000000000
1717675021223,19.0000000000,0.0000000000,11.0000000000,176.0000000000,342.0000000000,191.0000000000
1717675021223,19.0000000000,0.0000000000,11.0000000000,176.0000000000,340.0000000000,189.0000000000
1717675021223,19.0000000000,0.0000000000,11.0000000000,175.0000000000,337.0000000000,188.0000000000
1717675021240,19.0000000000,0.0000000000,11.0000000000,173.0000000000,335.0000000000,187.0000000000
1717675021241,19.0000000000,0.0000000000,11.0000000000,172.0000000000,334.0000000000,185.0000000000
1717675021241,19.0000000000,0.0000000000,11.0000000000,172.0000000000,331.0000000000,184.0000000000
1717675021241,19.0000000000,0.0000000000,11.0000000000,169.0000000000,329.0000000000,183.0000000000
1717675021241,18.0000000000,0.0000000000,12.0000000000,169.0000000000,327.0000000000,182.0000000000
1717675021242,18.0000000000,0.0000000000,11.0000000000,167.0000000000,324.0000000000,180.0000000000
1717675021242,18.0000000000,0.0000000000,11.0000000000,167.0000000000,323.0000000000,179.0000000000
1717675021242,18.0000000000,0.0000000000,11.0000000000,166.0000000000,321.0000000000,178.0000000000
1717675021242,18.0000000000,0.0000000000,11.0000000000,165.0000000000,319.0000000000,177.0000000000
1717675021242,17.0000000000,0.0000000000,11.0000000000,164.0000000000,317.0000000000,176.0000000000
1717675021242,17.0000000000,0.0000000000,11.0000000000,163.0000000000,316.0000000000,176.0000000000
1717675021256,17.0000000000,0.0000000000,11.0000000000,162.0000000000,313.0000000000,174.0000000000
1717675021256,17.0000000000,0.0000000000,11.0000000000,161.0000000000,312.0000000000,173.0000000000
1717675021256,17.0000000000,0.0000000000,10.0000000000,159.0000000000,310.0000000000,172.0000000000
1717675021257,17.0000000000,0.0000000000,10.0000000000,159.0000000000,307.0000000000,171.0000000000
1717675021257,17.0000000000,0.0000000000,10.0000000000,158.0000000000,306.0000000000,169.0000000000
1717675021257,17.0000000000,0.0000000000,9.0000000000,158.0000000000,304.0000000000,169.0000000000
1717675021257,17.0000000000,0.0000000000,10.0000000000,156.0000000000,302.0000000000,167.0000000000
1717675021257,17.0000000000,0.0000000000,9.0000000000,156.0000000000,300.0000000000,167.0000000000
1717675021257,17.0000000000,0.0000000000,9.0000000000,155.0000000000,300.0000000000,166.0000000000
1717675021272,17.0000000000,0.0000000000,10.0000000000,153.0000000000,296.0000000000,165.0000000000
1717675021273,17.0000000000,0.0000000000,9.0000000000,152.0000000000,295.0000000000,164.0000000000
1717675021274,16.0000000000,0.0000000000,9.0000000000,152.0000000000,294.0000000000,163.0000000000
1717675021274,17.0000000000,0.0000000000,9.0000000000,152.0000000000,291.0000000000,162.0000000000
1717675021274,17.0000000000,0.0000000000,14.0000000000,150.0000000000,291.0000000000,161.0000000000
1717675021274,16.0000000000,0.0000000000,14.0000000000,150.0000000000,289.0000000000,160.0000000000
1717675021275,16.0000000000,0.0000000000,14.0000000000,148.0000000000,287.0000000000,159.0000000000
1717675021275,16.0000000000,0.0000000000,14.0000000000,147.0000000000,286.0000000000,159.0000000000
1717675021275,16.0000000000,0.0000000000,14.0000000000,147.0000000000,284.0000000000,255.0000000000
1717675021275,44.0000000000,0.0000000000,14.0000000000,145.0000000000,282.0000000000,253.0000000000
1717675021305,44.0000000000,0.0000000000,14.0000000000,145.0000000000,281.0000000000,251.0000000000
1717675021306,44.0000000000,0.0000000000,13.0000000000,143.0000000000,280.0000000000,249.0000000000
1717675021306,43.0000000000,0.0000000000,13.0000000000,143.0000000000,279.0000000000,247.0000000000
1717675021306,42.0000000000,1.0000000000,13.0000000000,142.0000000000,276.0000000000,262.0000000000
1717675021306,42.0000000000,1.0000000000,13.0000000000,142.0000000000,354.0000000000,259.0000000000
1717675021307,42.0000000000,1.0000000000,13.0000000000,141.0000000000,356.0000000000,255.0000000000
1717675021307,41.0000000000,1.0000000000,13.0000000000,140.0000000000,353.0000000000,255.0000000000
1717675021307,41.0000000000,1.0000000000,13.0000000000,140.0000000000,351.0000000000,253.0000000000
1717675021307,40.0000000000,1.0000000000,13.0000000000,139.0000000000,348.0000000000,252.0000000000
1717675021307,39.0000000000,1.0000000000,13.0000000000,137.0000000000,345.0000000000,249.0000000000
1717675021307,40.0000000000,1.0000000000,13.0000000000,137.0000000000,344.0000000000,248.0000000000
1717675021307,39.0000000000,1.0000000000,13.0000000000,135.0000000000,340.0000000000,247.0000000000
1717675021307,39.0000000000,1.0000000000,13.0000000000,135.0000000000,339.0000000000,244.0000000000
1717675021308,39.0000000000,1.0000000000,12.0000000000,135.0000000000,335.0000000000,243.0000000000
1717675021308,39.0000000000,1.0000000000,12.0000000000,134.0000000000,334.0000000000,241.0000000000
1717675021308,39.0000000000,1.0000000000,12.0000000000,133.0000000000,333.0000000000,240.0000000000
1717675021308,39.0000000000,1.0000000000,13.0000000000,133.0000000000,463.0000000000,239.0000000000
1717675021308,39.0000000000,1.0000000000,13.0000000000,131.0000000000,460.0000000000,312.0000000000
1717675021329,38.0000000000,1.0000000000,13.0000000000,131.0000000000,455.0000000000,359.0000000000
1717675021331,38.0000000000,1.0000000000,13.0000000000,130.0000000000,451.0000000000,355.0000000000
1717675021331,37.0000000000,1.0000000000,12.0000000000,129.0000000000,448.0000000000,352.0000000000
1717675021331,38.0000000000,0.0000000000,12.0000000000,129.0000000000,443.0000000000,349.0000000000
1717675021332,38.0000000000,1.0000000000,12.0000000000,127.0000000000,440.0000000000,346.0000000000
1717675021332,38.0000000000,1.0000000000,12.0000000000,127.0000000000,436.0000000000,344.0000000000
1717675021332,38.0000000000,1.0000000000,12.0000000000,127.0000000000,433.0000000000,342.0000000000
1717675021332,36.0000000000,1.0000000000,12.0000000000,126.0000000000,430.0000000000,339.0000000000
1717675021332,37.0000000000,1.0000000000,12.0000000000,125.0000000000,426.0000000000,336.0000000000
1717675021332,36.0000000000,1.0000000000,12.0000000000,124.0000000000,423.0000000000,334.0000000000
1717675021332,36.0000000000,1.0000000000,12.0000000000,124.0000000000,420.0000000000,332.0000000000
1717675021333,36.0000000000,1.0000000000,12.0000000000,123.0000000000,417.0000000000,329.0000000000
1717675021333,35.0000000000,1.0000000000,12.0000000000,123.0000000000,414.0000000000,327.0000000000
1717675021333,35.0000000000,1.0000000000,12.0000000000,122.0000000000,412.0000000000,324.0000000000
1717675021347,35.0000000000,0.0000000000,12.0000000000,123.0000000000,408.0000000000,323.0000000000
1717675021348,39.0000000000,1.0000000000,11.0000000000,222.0000000000,404.0000000000,319.0000000000
1717675021348,39.0000000000,1.0000000000,11.0000000000,217.0000000000,403.0000000000,318.0000000000
1717675021348,39.0000000000,0.0000000000,12.0000000000,216.0000000000,399.0000000000,316.0000000000
1717675021348,39.0000000000,0.0000000000,11.0000000000,215.0000000000,397.0000000000,315.0000000000
1717675021348,39.0000000000,0.0000000000,11.0000000000,213.0000000000,393.0000000000,312.0000000000
1717675021349,39.0000000000,1.0000000000,15.0000000000,211.0000000000,391.0000000000,311.0000000000
1717675021349,39.0000000000,1.0000000000,34.0000000000,210.0000000000,388.0000000000,307.0000000000
1717675021349,39.0000000000,1.0000000000,33.0000000000,209.0000000000,385.0000000000,306.0000000000
1717675021365,38.0000000000,1.0000000000,33.0000000000,207.0000000000,384.0000000000,304.0000000000
1717675021366,38.0000000000,1.0000000000,33.0000000000,207.0000000000,380.0000000000,303.0000000000
1717675021366,38.0000000000,1.0000000000,32.0000000000,204.0000000000,377.0000000000,300.0000000000
1717675021366,37.0000000000,0.0000000000,33.0000000000,203.0000000000,376.0000000000,299.0000000000
1717675021366,37.0000000000,1.0000000000,32.0000000000,201.0000000000,372.0000000000,296.0000000000
1717675021366,38.0000000000,1.0000000000,31.0000000000,199.0000000000,371.0000000000,295.0000000000
1717675021366,37.0000000000,0.0000000000,31.0000000000,199.0000000000,368.0000000000,293.0000000000
1717675021367,36.0000000000,1.0000000000,31.0000000000,199.0000000000,366.0000000000,291.0000000000
1717675021367,36.0000000000,1.0000000000,31.0000000000,197.0000000000,364.0000000000,289.0000000000
1717675021382,35.0000000000,1.0000000000,31.0000000000,195.0000000000,478.0000000000,287.0000000000
1717675021383,35.0000000000,1.0000000000,31.0000000000,195.0000000000,472.0000000000,286.0000000000
1717675021383,35.0000000000,1.0000000000,31.0000000000,193.0000000000,467.0000000000,284.0000000000
1717675021383,35.0000000000,0.0000000000,31.0000000000,192.0000000000,463.0000000000,283.0000000000
1717675021383,66.0000000000,0.0000000000,30.0000000000,191.0000000000,460.0000000000,280.0000000000
1717675021383,67.0000000000,1.0000000000,30.0000000000,190.0000000000,455.0000000000,279.0000000000
1717675021383,66.0000000000,1.0000000000,30.0000000000,188.0000000000,452.0000000000,278.0000000000
1717675021384,65.0000000000,1.0000000000,30.0000000000,188.0000000000,448.0000000000,275.0000000000
1717675021384,65.0000000000,1.0000000000,30.0000000000,187.0000000000,446.0000000000,274.0000000000
1717675021384,64.0000000000,1.0000000000,30.0000000000,185.0000000000,441.0000000000,272.0000000000
1717675021384,64.0000000000,1.0000000000,29.0000000000,184.0000000000,438.0000000000,271.0000000000
1717675021384,63.0000000000,1.0000000000,29.0000000000,183.0000000000,435.0000000000,269.0000000000
1717675021402,63.0000000000,1.0000000000,29.0000000000,182.0000000000,431.0000000000,268.0000000000
1717675021403,63.0000000000,1.0000000000,28.0000000000,180.0000000000,428.0000000000,265.0000000000
1717675021403,63.0000000000,1.0000000000,28.0000000000,179.0000000000,425.0000000000,263.0000000000
1717675021403,64.0000000000,1.0000000000,28.0000000000,179.0000000000,423.0000000000,263.0000000000
1717675021403,69.0000000000,1.0000000000,28.0000000000,177.0000000000,419.0000000000,262.0000000000
1717675021403,68.0000000000,1.0000000000,28.0000000000,176.0000000000,415.0000000000,260.0000000000
1717675021403,67.0000000000,1.0000000000,28.0000000000,175.0000000000,413.0000000000,259.0000000000
1717675021403,67.0000000000,1.0000000000,28.0000000000,175.0000000000,409.0000000000,257.0000000000
1717675021404,67.0000000000,1.0000000000,28.0000000000,174.0000000000,408.0000000000,255.0000000000
1717675021422,66.0000000000,0.0000000000,28.0000000000,172.0000000000,415.0000000000,254.0000000000
1717675021423,66.0000000000,1.0000000000,27.0000000000,172.0000000000,420.0000000000,252.0000000000
1717675021423,65.0000000000,1.0000000000,27.0000000000,170.0000000000,417.0000000000,251.0000000000
1717675021423,65.0000000000,1.0000000000,27.0000000000,169.0000000000,414.0000000000,249.0000000000
1717675021424,65.0000000000,0.0000000000,27.0000000000,167.0000000000,411.0000000000,248.0000000000
1717675021424,64.0000000000,1.0000000000,27.0000000000,167.0000000000,408.0000000000,248.0000000000
1717675021424,64.0000000000,1.0000000000,25.0000000000,167.0000000000,404.0000000000,246.0000000000
1717675021424,65.0000000000,0.0000000000,27.0000000000,165.0000000000,401.0000000000,244.0000000000
1717675021424,65.0000000000,1.0000000000,25.0000000000,165.0000000000,399.0000000000,243.0000000000
1717675021425,64.0000000000,0.0000000000,25.0000000000,163.0000000000,396.0000000000,241.0000000000
1717675021425,64.0000000000,1.0000000000,25.0000000000,163.0000000000,393.0000000000,240.0000000000
1717675021442,63.0000000000,0.0000000000,25.0000000000,162.0000000000,391.0000000000,239.0000000000
1717675021443,63.0000000000,1.0000000000,25.0000000000,160.0000000000,388.0000000000,238.0000000000
1717675021443,63.0000000000,0.0000000000,25.0000000000,160.0000000000,385.0000000000,236.0000000000
1717675021443,62.0000000000,1.0000000000,25.0000000000,159.0000000000,383.0000000000,235.0000000000
1717675021443,62.0000000000,0.0000000000,25.0000000000,158.0000000000,380.0000000000,233.0000000000
1717675021443,61.0000000000,0.0000000000,25.0000000000,158.0000000000,378.0000000000,231.0000000000
1717675021444,95.0000000000,1.0000000000,25.0000000000,157.0000000000,376.0000000000,231.0000000000
1717675021444,109.0000000000,1.0000000000,25.0000000000,156.0000000000,372.0000000000,230.0000000000
1717675021444,108.0000000000,1.0000000000,25.0000000000,155.0000000000,370.0000000000,228.0000000000
1717675021444,107.0000000000,0.0000000000,24.0000000000,153.0000000000,368.0000000000,227.0000000000
1717675021444,105.0000000000,0.0000000000,24.0000000000,152.0000000000,365.0000000000,226.0000000000
1717675021458,104.0000000000,0.0000000000,24.0000000000,152.0000000000,362.0000000000,224.0000000000
1717675021459,103.0000000000,1.0000000000,24.0000000000,151.0000000000,359.0000000000,223.0000000000
1717675021459,103.0000000000,0.0000000000,24.0000000000,150.0000000000,358.0000000000,222.0000000000
1717675021459,103.0000000000,1.0000000000,24.0000000000,149.0000000000,355.0000000000,220.0000000000
1717675021459,103.0000000000,1.0000000000,24.0000000000,148.0000000000,352.0000000000,220.0000000000
1717675021459,102.0000000000,0.0000000000,24.0000000000,147.0000000000,350.0000000000,219.0000000000
1717675021459,101.0000000000,0.0000000000,24.0000000000,147.0000000000,348.0000000000,217.0000000000
1717675021459,100.0000000000,0.0000000000,24.0000000000,146.0000000000,346.0000000000,216.0000000000
1717675021459,99.0000000000,0.0000000000,24.0000000000,145.0000000000,344.0000000000,215.0000000000
1717675021491,99.0000000000,0.0000000000,24.0000000000,143.0000000000,342.0000000000,213.0000000000
1717675021492,99.0000000000,0.0000000000,24.0000000000,143.0000000000,382.0000000000,212.0000000000
1717675021492,98.0000000000,0.0000000000,23.0000000000,143.0000000000,484.0000000000,217.0000000000
1717675021492,97.0000000000,0.0000000000,23.0000000000,141.0000000000,479.0000000000,216.0000000000
1717675021492,96.0000000000,1.0000000000,23.0000000000,140.0000000000,474.0000000000,214.0000000000
1717675021492,96.0000000000,0.0000000000,23.0000000000,140.0000000000,471.0000000000,213.0000000000
1717675021493,96.0000000000,0.0000000000,23.0000000000,140.0000000000,466.0000000000,211.0000000000
1717675021493,95.0000000000,0.0000000000,23.0000000000,139.0000000000,463.0000000000,276.0000000000
1717675021493,124.0000000000,0.0000000000,22.0000000000,137.0000000000,459.0000000000,273.0000000000
1717675021493,122.0000000000,0.0000000000,22.0000000000,137.0000000000,455.0000000000,271.0000000000
1717675021493,121.0000000000,0.0000000000,22.0000000000,135.0000000000,451.0000000000,270.0000000000
1717675021493,120.0000000000,0.0000000000,21.0000000000,135.0000000000,448.0000000000,268.0000000000
1717675021493,120.0000000000,0.0000000000,21.0000000000,135.0000000000,444.0000000000,265.0000000000
1717675021494,118.0000000000,2.0000000000,23.0000000000,135.0000000000,440.0000000000,263.0000000000
1717675021494,118.0000000000,2.0000000000,23.0000000000,133.0000000000,437.0000000000,263.0000000000
1717675021494,116.0000000000,2.0000000000,22.0000000000,132.0000000000,434.0000000000,294.0000000000
1717675021494,116.0000000000,2.0000000000,22.0000000000,157.0000000000,431.0000000000,291.0000000000
1717675021494,115.0000000000,2.0000000000,22.0000000000,156.0000000000,427.0000000000,289.0000000000
1717675021494,140.0000000000,2.0000000000,22.0000000000,155.0000000000,423.0000000000,287.0000000000
1717675021494,148.0000000000,2.0000000000,22.0000000000,153.0000000000,421.0000000000,284.0000000000
1717675021509,147.0000000000,2.0000000000,22.0000000000,152.0000000000,417.0000000000,283.0000000000
1717675021510,145.0000000000,2.0000000000,21.0000000000,152.0000000000,414.0000000000,281.0000000000
1717675021510,144.0000000000,1.0000000000,22.0000000000,151.0000000000,411.0000000000,279.0000000000
1717675021510,143.0000000000,1.0000000000,21.0000000000,150.0000000000,408.0000000000,276.0000000000
1717675021510,142.0000000000,1.0000000000,22.0000000000,148.0000000000,406.0000000000,275.0000000000
1717675021510,141.0000000000,2.0000000000,21.0000000000,147.0000000000,402.0000000000,273.0000000000
1717675021510,140.0000000000,1.0000000000,20.0000000000,147.0000000000,399.0000000000,271.0000000000
1717675021511,139.0000000000,2.0000000000,20.0000000000,145.0000000000,396.0000000000,293.0000000000
1717675021511,138.0000000000,1.0000000000,20.0000000000,145.0000000000,393.0000000000,291.0000000000
1717675021533,137.0000000000,1.0000000000,20.0000000000,143.0000000000,391.0000000000,287.0000000000
1717675021534,136.0000000000,1.0000000000,20.0000000000,143.0000000000,387.0000000000,287.0000000000
1717675021534,135.0000000000,2.0000000000,20.0000000000,142.0000000000,384.0000000000,284.0000000000
1717675021534,135.0000000000,2.0000000000,19.0000000000,140.0000000000,383.0000000000,281.0000000000
1717675021534,134.0000000000,2.0000000000,19.0000000000,140.0000000000,380.0000000000,280.0000000000
1717675021535,134.0000000000,2.0000000000,20.0000000000,140.0000000000,377.0000000000,279.0000000000
1717675021535,132.0000000000,1.0000000000,19.0000000000,139.0000000000,374.0000000000,276.0000000000
1717675021535,131.0000000000,2.0000000000,20.0000000000,137.0000000000,372.0000000000,274.0000000000
1717675021535,130.0000000000,1.0000000000,20.0000000000,135.0000000000,369.0000000000,271.0000000000
1717675021535,129.0000000000,2.0000000000,19.0000000000,135.0000000000,366.0000000000,270.0000000000
1717675021535,129.0000000000,2.0000000000,19.0000000000,135.0000000000,364.0000000000,269.0000000000
1717675021535,127.0000000000,2.0000000000,19.0000000000,135.0000000000,361.0000000000,285.0000000000
1717675021536,127.0000000000,2.0000000000,19.0000000000,134.0000000000,359.0000000000,283.0000000000
1717675021551,127.0000000000,2.0000000000,19.0000000000,204.0000000000,454.0000000000,281.0000000000
1717675021551,125.0000000000,1.0000000000,19.0000000000,211.0000000000,449.0000000000,280.0000000000
1717675021551,124.0000000000,1.0000000000,19.0000000000,209.0000000000,447.0000000000,276.0000000000
1717675021551,124.0000000000,1.0000000000,19.0000000000,208.0000000000,443.0000000000,275.0000000000
1717675021552,123.0000000000,2.0000000000,19.0000000000,207.0000000000,438.0000000000,273.0000000000
1717675021552,123.0000000000,2.0000000000,19.0000000000,205.0000000000,435.0000000000,271.0000000000
1717675021552,121.0000000000,1.0000000000,18.0000000000,204.0000000000,432.0000000000,270.0000000000
1717675021552,121.0000000000,1.0000000000,19.0000000000,201.0000000000,428.0000000000,268.0000000000
1717675021552,120.0000000000,1.0000000000,19.0000000000,200.0000000000,423.0000000000,265.0000000000
1717675021574,142.0000000000,2.0000000000,18.0000000000,199.0000000000,420.0000000000,263.0000000000
1717675021575,141.0000000000,2.0000000000,18.0000000000,198.0000000000,417.0000000000,262.0000000000
1717675021575,140.0000000000,1.0000000000,18.0000000000,196.0000000000,415.0000000000,260.0000000000
1717675021575,139.0000000000,1.0000000000,17.0000000000,195.0000000000,411.0000000000,259.0000000000
1717675021575,139.0000000000,1.0000000000,18.0000000000,194.0000000000,408.0000000000,257.0000000000
1717675021575,137.0000000000,3.0000000000,17.0000000000,192.0000000000,404.0000000000,255.0000000000
1717675021576,135.0000000000,3.0000000000,17.0000000000,192.0000000000,402.0000000000,254.0000000000
1717675021576,135.0000000000,3.0000000000,17.0000000000,190.0000000000,399.0000000000,252.0000000000
1717675021576,135.0000000000,3.0000000000,17.0000000000,190.0000000000,396.0000000000,251.0000000000
1717675021576,133.0000000000,3.0000000000,17.0000000000,188.0000000000,391.0000000000,249.0000000000
1717675021576,132.0000000000,3.0000000000,17.0000000000,186.0000000000,391.0000000000,248.0000000000
1717675021576,133.0000000000,3.0000000000,17.0000000000,185.0000000000,387.0000000000,246.0000000000
1717675021577,132.0000000000,3.0000000000,17.0000000000,184.0000000000,384.0000000000,244.0000000000
1717675021599,131.0000000000,2.0000000000,17.0000000000,184.0000000000,382.0000000000,243.0000000000
1717675021601,130.0000000000,3.0000000000,17.0000000000,182.0000000000,379.0000000000,241.0000000000
1717675021602,129.0000000000,3.0000000000,17.0000000000,180.0000000000,376.0000000000,240.0000000000
1717675021602,128.0000000000,3.0000000000,17.0000000000,179.0000000000,374.0000000000,239.0000000000
1717675021603,127.0000000000,2.0000000000,16.0000000000,179.0000000000,371.0000000000,237.0000000000
1717675021603,127.0000000000,3.0000000000,16.0000000000,177.0000000000,369.0000000000,236.0000000000
1717675021604,126.0000000000,3.0000000000,16.0000000000,176.0000000000,366.0000000000,233.0000000000
1717675021604,125.0000000000,3.0000000000,16.0000000000,176.0000000000,469.0000000000,233.0000000000
1717675021605,125.0000000000,3.0000000000,16.0000000000,188.0000000000,463.0000000000,286.0000000000
1717675021606,134.0000000000,2.0000000000,16.0000000000,207.0000000000,460.0000000000,283.0000000000
1717675021606,132.0000000000,3.0000000000,15.0000000000,205.0000000000,455.0000000000,280.0000000000
1717675021606,131.0000000000,2.0000000000,15.0000000000,204.0000000000,451.0000000000,279.0000000000
1717675021607,131.0000000000,2.0000000000,15.0000000000,203.0000000000,448.0000000000,276.0000000000
1717675021607,130.0000000000,2.0000000000,15.0000000000,200.0000000000,445.0000000000,275.0000000000
1717675021607,129.0000000000,2.0000000000,15.0000000000,199.0000000000,440.0000000000,272.0000000000
1717675021641,127.0000000000,2.0000000000,15.0000000000,198.0000000000,437.0000000000,271.0000000000
1717675021641,127.0000000000,2.0000000000,15.0000000000,197.0000000000,433.0000000000,269.0000000000
1717675021641,126.0000000000,3.0000000000,15.0000000000,195.0000000000,429.0000000000,267.0000000000
1717675021641,125.0000000000,2.0000000000,15.0000000000,194.0000000000,427.0000000000,263.0000000000
1717675021641,132.0000000000,2.0000000000,15.0000000000,193.0000000000,423.0000000000,263.0000000000
1717675021642,131.0000000000,2.0000000000,15.0000000000,192.0000000000,419.0000000000,338.0000000000
1717675021642,129.0000000000,2.0000000000,15.0000000000,190.0000000000,415.0000000000,334.0000000000
1717675021642,129.0000000000,2.0000000000,15.0000000000,189.0000000000,414.0000000000,332.0000000000
1717675021642,128.0000000000,2.0000000000,15.0000000000,188.0000000000,411.0000000000,329.0000000000
1717675021642,127.0000000000,2.0000000000,15.0000000000,187.0000000000,408.0000000000,327.0000000000
1717675021642,127.0000000000,2.0000000000,15.0000000000,185.0000000000,403.0000000000,324.0000000000
1717675021642,126.0000000000,2.0000000000,17.0000000000,184.0000000000,401.0000000000,322.0000000000
1717675021642,125.0000000000,1.0000000000,17.0000000000,183.0000000000,398.0000000000,319.0000000000
1717675021642,124.0000000000,2.0000000000,17.0000000000,182.0000000000,399.0000000000,317.0000000000
1717675021642,123.0000000000,2.0000000000,17.0000000000,181.0000000000,450.0000000000,315.0000000000
1717675021642,123.0000000000,1.0000000000,17.0000000000,179.0000000000,447.0000000000,312.0000000000
1717675021643,122.0000000000,2.0000000000,16.0000000000,178.0000000000,443.0000000000,310.0000000000
1717675021643,121.0000000000,2.0000000000,17.0000000000,177.0000000000,439.0000000000,308.0000000000
1717675021643,120.0000000000,2.0000000000,16.0000000000,176.0000000000,435.0000000000,307.0000000000
1717675021643,120.0000000000,2.0000000000,15.0000000000,227.0000000000,432.0000000000,304.0000000000
1717675021657,119.0000000000,2.0000000000,15.0000000000,225.0000000000,428.0000000000,302.0000000000
1717675021658,119.0000000000,2.0000000000,16.0000000000,224.0000000000,423.0000000000,300.0000000000
1717675021658,117.0000000000,2.0000000000,16.0000000000,222.0000000000,420.0000000000,297.0000000000
1717675021658,116.0000000000,2.0000000000,16.0000000000,220.0000000000,418.0000000000,295.0000000000
1717675021659,115.0000000000,2.0000000000,15.0000000000,219.0000000000,415.0000000000,294.0000000000
1717675021659,135.0000000000,1.0000000000,16.0000000000,217.0000000000,412.0000000000,291.0000000000
1717675021659,141.0000000000,2.0000000000,15.0000000000,216.0000000000,408.0000000000,290.0000000000
1717675021659,140.0000000000,1.0000000000,15.0000000000,215.0000000000,404.0000000000,287.0000000000
1717675021659,140.0000000000,2.0000000000,15.0000000000,212.0000000000,402.0000000000,286.0000000000
1717675021674,138.0000000000,2.0000000000,15.0000000000,211.0000000000,399.0000000000,284.0000000000
1717675021675,137.0000000000,2.0000000000,15.0000000000,211.0000000000,396.0000000000,283.0000000000
1717675021675,135.0000000000,2.0000000000,15.0000000000,208.0000000000,392.0000000000,281.0000000000
1717675021675,135.0000000000,2.0000000000,15.0000000000,207.0000000000,391.0000000000,279.0000000000
1717675021675,135.0000000000,1.0000000000,15.0000000000,206.0000000000,387.0000000000,333.0000000000
1717675021675,134.0000000000,1.0000000000,15.0000000000,205.0000000000,384.0000000000,331.0000000000
1717675021675,132.0000000000,1.0000000000,15.0000000000,204.0000000000,382.0000000000,327.0000000000
1717675021676,134.0000000000,1.0000000000,15.0000000000,202.0000000000,380.0000000000,325.0000000000
1717675021676,134.0000000000,1.0000000000,15.0000000000,199.0000000000,376.0000000000,323.0000000000
1717675021689,133.0000000000,1.0000000000,14.0000000000,199.0000000000,374.0000000000,320.0000000000
1717675021690,132.0000000000,1.0000000000,14.0000000000,198.0000000000,371.0000000000,318.0000000000
1717675021690,131.0000000000,1.0000000000,15.0000000000,197.0000000000,369.0000000000,316.0000000000
1717675021690,130.0000000000,2.0000000000,15.0000000000,195.0000000000,367.0000000000,313.0000000000
1717675021690,129.0000000000,1.0000000000,14.0000000000,195.0000000000,364.0000000000,312.0000000000
1717675021690,129.0000000000,1.0000000000,14.0000000000,193.0000000000,361.0000000000,310.0000000000
1717675021709,127.0000000000,1.0000000000,14.0000000000,192.0000000000,359.0000000000,307.0000000000
1717675021711,127.0000000000,1.0000000000,14.0000000000,191.0000000000,356.0000000000,305.0000000000
1717675021711,126.0000000000,1.0000000000,14.0000000000,227.0000000000,354.0000000000,303.0000000000
1717675021712,129.0000000000,1.0000000000,13.0000000000,225.0000000000,352.0000000000,301.0000000000
1717675021712,139.0000000000,1.0000000000,13.0000000000,223.0000000000,476.0000000000,299.0000000000
1717675021712,137.0000000000,1.0000000000,14.0000000000,221.0000000000,471.0000000000,295.0000000000
1717675021713,135.0000000000,1.0000000000,14.0000000000,220.0000000000,466.0000000000,295.0000000000
1717675021713,135.0000000000,1.0000000000,14.0000000000,267.0000000000,462.0000000000,293.0000000000
1717675021713,135.0000000000,1.0000000000,13.0000000000,263.0000000000,459.0000000000,291.0000000000
1717675021713,134.0000000000,1.0000000000,14.0000000000,261.0000000000,455.0000000000,288.0000000000
1717675021714,132.0000000000,1.0000000000,14.0000000000,259.0000000000,451.0000000000,287.0000000000
1717675021714,131.0000000000,1.0000000000,13.0000000000,257.0000000000,447.0000000000,284.0000000000
1717675021714,131.0000000000,1.0000000000,14.0000000000,255.0000000000,444.0000000000,283.0000000000
1717675021745,130.0000000000,1.0000000000,14.0000000000,254.0000000000,440.0000000000,281.0000000000
1717675021748,135.0000000000,1.0000000000,14.0000000000,252.0000000000,436.0000000000,280.0000000000
1717675021750,134.0000000000,1.0000000000,13.0000000000,250.0000000000,432.0000000000,278.0000000000
1717675021750,133.0000000000,1.0000000000,14.0000000000,248.0000000000,428.0000000000,275.0000000000
1717675021751,132.0000000000,1.0000000000,13.0000000000,247.0000000000,426.0000000000,274.0000000000
1717675021752,131.0000000000,1.0000000000,13.0000000000,245.0000000000,423.0000000000,272.0000000000
1717675021753,131.0000000000,1.0000000000,13.0000000000,243.0000000000,419.0000000000,271.0000000000
1717675021753,130.0000000000,1.0000000000,13.0000000000,242.0000000000,415.0000000000,269.0000000000
1717675021754,129.0000000000,1.0000000000,13.0000000000,240.0000000000,414.0000000000,268.0000000000
1717675021754,127.0000000000,1.0000000000,12.0000000000,238.0000000000,409.0000000000,265.0000000000
1717675021754,127.0000000000,1.0000000000,12.0000000000,237.0000000000,407.0000000000,263.0000000000
1717675021754,167.0000000000,1.0000000000,12.0000000000,236.0000000000,403.0000000000,263.0000000000
1717675021755,165.0000000000,1.0000000000,12.0000000000,233.0000000000,401.0000000000,260.0000000000
1717675021755,163.0000000000,1.0000000000,12.0000000000,231.0000000000,398.0000000000,259.0000000000
1717675021755,162.0000000000,1.0000000000,12.0000000000,231.0000000000,395.0000000000,257.0000000000
1717675021755,161.0000000000,1.0000000000,12.0000000000,230.0000000000,391.0000000000,255.0000000000
1717675021755,159.0000000000,1.0000000000,12.0000000000,227.0000000000,390.0000000000,255.0000000000
1717675021756,159.0000000000,1.0000000000,17.0000000000,226.0000000000,387.0000000000,253.0000000000
1717675021756,158.0000000000,1.0000000000,17.0000000000,225.0000000000,384.0000000000,252.0000000000
1717675021756,156.0000000000,1.0000000000,17.0000000000,224.0000000000,380.0000000000,249.0000000000
1717675021756,156.0000000000,1.0000000000,17.0000000000,222.0000000000,378.0000000000,248.0000000000
1717675021756,155.0000000000,1.0000000000,17.0000000000,220.0000000000,376.0000000000,247.0000000000
1717675021757,186.0000000000,1.0000000000,17.0000000000,220.0000000000,373.0000000000,246.0000000000
1717675021757,184.0000000000,1.0000000000,16.0000000000,217.0000000000,370.0000000000,243.0000000000
1717675021770,183.0000000000,1.0000000000,16.0000000000,216.0000000000,368.0000000000,243.0000000000
1717675021771,181.0000000000,1.0000000000,16.0000000000,215.0000000000,366.0000000000,241.0000000000
1717675021771,179.0000000000,1.0000000000,16.0000000000,214.0000000000,363.0000000000,240.0000000000
1717675021771,179.0000000000,1.0000000000,23.0000000000,212.0000000000,359.0000000000,238.0000000000
1717675021771,177.0000000000,1.0000000000,23.0000000000,211.0000000000,359.0000000000,237.0000000000
1717675021771,176.0000000000,1.0000000000,23.0000000000,209.0000000000,355.0000000000,236.0000000000
1717675021771,175.0000000000,1.0000000000,23.0000000000,207.0000000000,353.0000000000,233.0000000000
1717675021787,174.0000000000,1.0000000000,23.0000000000,207.0000000000,351.0000000000,233.0000000000
1717675021789,172.0000000000,1.0000000000,22.0000000000,214.0000000000,348.0000000000,231.0000000000
1717675021790,172.0000000000,1.0000000000,22.0000000000,212.0000000000,391.0000000000,373.0000000000
1717675021790,174.0000000000,1.0000000000,34.0000000000,210.0000000000,387.0000000000,385.0000000000
1717675021790,172.0000000000,1.0000000000,33.0000000000,209.0000000000,384.0000000000,382.0000000000
1717675021791,171.0000000000,1.0000000000,33.0000000000,207.0000000000,381.0000000000,379.0000000000
1717675021791,169.0000000000,1.0000000000,32.0000000000,206.0000000000,379.0000000000,376.0000000000
1717675021791,169.0000000000,3.0000000000,59.0000000000,205.0000000000,376.0000000000,372.0000000000
1717675021791,167.0000000000,3.0000000000,58.0000000000,204.0000000000,372.0000000000,370.0000000000
1717675021792,167.0000000000,3.0000000000,57.0000000000,203.0000000000,369.0000000000,367.0000000000
1717675021792,166.0000000000,3.0000000000,57.0000000000,200.0000000000,368.0000000000,364.0000000000
1717675021821,164.0000000000,3.0000000000,57.0000000000,199.0000000000,364.0000000000,360.0000000000
1717675021822,163.0000000000,3.0000000000,56.0000000000,199.0000000000,361.0000000000,359.0000000000
1717675021822,162.0000000000,3.0000000000,56.0000000000,198.0000000000,359.0000000000,355.0000000000
1717675021822,161.0000000000,3.0000000000,56.0000000000,196.0000000000,357.0000000000,478.0000000000
1717675021822,159.0000000000,3.0000000000,55.0000000000,195.0000000000,354.0000000000,563.0000000000
1717675021823,159.0000000000,3.0000000000,56.0000000000,194.0000000000,351.0000000000,557.0000000000
1717675021823,158.0000000000,3.0000000000,55.0000000000,192.0000000000,348.0000000000,551.0000000000
1717675021823,157.0000000000,3.0000000000,54.0000000000,192.0000000000,347.0000000000,544.0000000000
1717675021823,156.0000000000,3.0000000000,54.0000000000,191.0000000000,344.0000000000,542.0000000000
1717675021823,155.0000000000,3.0000000000,54.0000000000,189.0000000000,342.0000000000,537.0000000000
1717675021823,154.0000000000,3.0000000000,54.0000000000,188.0000000000,339.0000000000,532.0000000000
1717675021823,163.0000000000,3.0000000000,52.0000000000,187.0000000000,337.0000000000,527.0000000000
1717675021824,192.0000000000,3.0000000000,52.0000000000,185.0000000000,335.0000000000,521.0000000000
1717675021824,191.0000000000,3.0000000000,51.0000000000,184.0000000000,333.0000000000,518.0000000000
1717675021824,188.0000000000,3.0000000000,51.0000000000,184.0000000000,331.0000000000,513.0000000000
1717675021824,188.0000000000,3.0000000000,51.0000000000,182.0000000000,327.0000000000,508.0000000000
1717675021824,185.0000000000,3.0000000000,51.0000000000,182.0000000000,327.0000000000,504.0000000000
1717675021841,184.0000000000,3.0000000000,51.0000000000,180.0000000000,324.0000000000,499.0000000000
1717675021843,184.0000000000,3.0000000000,50.0000000000,179.0000000000,323.0000000000,496.0000000000
1717675021843,182.0000000000,3.0000000000,49.0000000000,179.0000000000,319.0000000000,492.0000000000
1717675021843,180.0000000000,3.0000000000,49.0000000000,177.0000000000,319.0000000000,487.0000000000
1717675021844,179.0000000000,3.0000000000,49.0000000000,176.0000000000,316.0000000000,483.0000000000
1717675021845,179.0000000000,3.0000000000,49.0000000000,175.0000000000,315.0000000000,480.0000000000
1717675021845,177.0000000000,3.0000000000,49.0000000000,174.0000000000,312.0000000000,476.0000000000
1717675021845,177.0000000000,3.0000000000,48.0000000000,173.0000000000,311.0000000000,472.0000000000
1717675021845,176.0000000000,3.0000000000,48.0000000000,172.0000000000,309.0000000000,468.0000000000
1717675021846,175.0000000000,3.0000000000,48.0000000000,171.0000000000,307.0000000000,465.0000000000
1717675021846,173.0000000000,2.0000000000,48.0000000000,170.0000000000,304.0000000000,462.0000000000
1717675021867,172.0000000000,3.0000000000,47.0000000000,169.0000000000,303.0000000000,457.0000000000
1717675021868,171.0000000000,3.0000000000,47.0000000000,167.0000000000,419.0000000000,454.0000000000
1717675021869,170.0000000000,3.0000000000,47.0000000000,167.0000000000,415.0000000000,451.0000000000
1717675021869,169.0000000000,3.0000000000,46.0000000000,167.0000000000,412.0000000000,448.0000000000
1717675021869,167.0000000000,3.0000000000,46.0000000000,166.0000000000,409.0000000000,444.0000000000
1717675021870,167.0000000000,3.0000000000,46.0000000000,164.0000000000,406.0000000000,440.0000000000
1717675021870,166.0000000000,3.0000000000,45.0000000000,166.0000000000,402.0000000000,438.0000000000
1717675021870,165.0000000000,3.0000000000,45.0000000000,164.0000000000,399.0000000000,433.0000000000
1717675021870,163.0000000000,2.0000000000,45.0000000000,163.0000000000,396.0000000000,431.0000000000
1717675021870,163.0000000000,2.0000000000,44.0000000000,163.0000000000,393.0000000000,428.0000000000
1717675021871,161.0000000000,3.0000000000,44.0000000000,162.0000000000,390.0000000000,423.0000000000
1717675021871,160.0000000000,3.0000000000,44.0000000000,161.0000000000,387.0000000000,422.0000000000
1717675021871,159.0000000000,3.0000000000,44.0000000000,159.0000000000,385.0000000000,418.0000000000
1717675021872,159.0000000000,3.0000000000,44.0000000000,159.0000000000,393.0000000000,415.0000000000
1717675021873,158.0000000000,3.0000000000,44.0000000000,158.0000000000,390.0000000000,412.0000000000
1717675021873,157.0000000000,3.0000000000,43.0000000000,157.0000000000,387.0000000000,409.0000000000
1717675021910,159.0000000000,3.0000000000,43.0000000000,156.0000000000,384.0000000000,406.0000000000
1717675021911,159.0000000000,3.0000000000,43.0000000000,156.0000000000,382.0000000000,403.0000000000
1717675021911,158.0000000000,3.0000000000,42.0000000000,154.0000000000,379.0000000000,400.0000000000
1717675021911,157.0000000000,3.0000000000,41.0000000000,153.0000000000,376.0000000000,398.0000000000
1717675021911,156.0000000000,3.0000000000,41.0000000000,153.0000000000,372.0000000000,395.0000000000
1717675021912,155.0000000000,3.0000000000,41.0000000000,152.0000000000,371.0000000000,391.0000000000
1717675021912,153.0000000000,3.0000000000,41.0000000000,152.0000000000,465.0000000000,390.0000000000
1717675021912,153.0000000000,3.0000000000,41.0000000000,150.0000000000,484.0000000000,387.0000000000
1717675021912,152.0000000000,3.0000000000,41.0000000000,150.0000000000,480.0000000000,384.0000000000
1717675021912,152.0000000000,3.0000000000,39.0000000000,148.0000000000,476.0000000000,381.0000000000
1717675021912,150.0000000000,3.0000000000,39.0000000000,147.0000000000,472.0000000000,379.0000000000
1717675021912,220.0000000000,3.0000000000,39.0000000000,147.0000000000,467.0000000000,376.0000000000
1717675021913,217.0000000000,3.0000000000,39.0000000000,145.0000000000,463.0000000000,374.0000000000
1717675021913,216.0000000000,3.0000000000,39.0000000000,145.0000000000,460.0000000000,371.0000000000
1717675021913,214.0000000000,3.0000000000,39.0000000000,144.0000000000,455.0000000000,368.0000000000
1717675021913,212.0000000000,3.0000000000,39.0000000000,143.0000000000,452.0000000000,367.0000000000
1717675021913,211.0000000000,3.0000000000,39.0000000000,143.0000000000,448.0000000000,364.0000000000
1717675021913,209.0000000000,3.0000000000,38.0000000000,142.0000000000,446.0000000000,361.0000000000
1717675021913,207.0000000000,3.0000000000,38.0000000000,141.0000000000,441.0000000000,359.0000000000
1717675021914,206.0000000000,3.0000000000,39.0000000000,140.0000000000,438.0000000000,357.0000000000
1717675021914,204.0000000000,3.0000000000,38.0000000000,140.0000000000,434.0000000000,355.0000000000
1717675021914,204.0000000000,3.0000000000,37.0000000000,139.0000000000,432.0000000000,352.0000000000
1717675021929,201.0000000000,3.0000000000,37.0000000000,138.0000000000,428.0000000000,350.0000000000
1717675021930,199.0000000000,3.0000000000,37.0000000000,137.0000000000,423.0000000000,348.0000000000
1717675021930,199.0000000000,3.0000000000,36.0000000000,136.0000000000,422.0000000000,345.0000000000
1717675021930,198.0000000000,3.0000000000,36.0000000000,135.0000000000,419.0000000000,344.0000000000
1717675021930,196.0000000000,3.0000000000,36.0000000000,135.0000000000,415.0000000000,342.0000000000
1717675021930,195.0000000000,3.0000000000,35.0000000000,135.0000000000,412.0000000000,339.0000000000
1717675021930,193.0000000000,3.0000000000,36.0000000000,134.0000000000,408.0000000000,337.0000000000
1717675021930,193.0000000000,3.0000000000,35.0000000000,132.0000000000,406.0000000000,335.0000000000
1717675021946,192.0000000000,3.0000000000,35.0000000000,132.0000000000,403.0000000000,332.0000000000
1717675021947,191.0000000000,3.0000000000,35.0000000000,131.0000000000,399.0000000000,331.0000000000
1717675021947,190.0000000000,3.0000000000,35.0000000000,131.0000000000,397.0000000000,328.0000000000
1717675021947,188.0000000000,3.0000000000,35.0000000000,130.0000000000,393.0000000000,327.0000000000
1717675021947,187.0000000000,3.0000000000,35.0000000000,129.0000000000,391.0000000000,324.0000000000
1717675021947,185.0000000000,3.0000000000,34.0000000000,129.0000000000,453.0000000000,323.0000000000
1717675021947,184.0000000000,3.0000000000,34.0000000000,127.0000000000,628.0000000000,321.0000000000
1717675021948,184.0000000000,3.0000000000,33.0000000000,172.0000000000,619.0000000000,319.0000000000
1717675021948,182.0000000000,3.0000000000,33.0000000000,169.0000000000,614.0000000000,316.0000000000
1717675021962,180.0000000000,3.0000000000,33.0000000000,167.0000000000,606.0000000000,315.0000000000
1717675021963,179.0000000000,3.0000000000,35.0000000000,167.0000000000,600.0000000000,313.0000000000
1717675021963,178.0000000000,3.0000000000,45.0000000000,166.0000000000,593.0000000000,312.0000000000
1717675021963,177.0000000000,3.0000000000,45.0000000000,164.0000000000,589.0000000000,308.0000000000
1717675021964,176.0000000000,3.0000000000,45.0000000000,163.0000000000,583.0000000000,307.0000000000
1717675021964,176.0000000000,3.0000000000,44.0000000000,163.0000000000,716.0000000000,306.0000000000
1717675021964,174.0000000000,3.0000000000,44.0000000000,161.0000000000,724.0000000000,304.0000000000
1717675021964,173.0000000000,2.0000000000,44.0000000000,159.0000000000,718.0000000000,302.0000000000
1717675021964,172.0000000000,2.0000000000,44.0000000000,159.0000000000,708.0000000000,300.0000000000
1717675021980,171.0000000000,3.0000000000,44.0000000000,158.0000000000,700.0000000000,299.0000000000
1717675021981,170.0000000000,2.0000000000,44.0000000000,157.0000000000,692.0000000000,319.0000000000
1717675021981,169.0000000000,2.0000000000,43.0000000000,156.0000000000,686.0000000000,455.0000000000
1717675021981,167.0000000000,2.0000000000,43.0000000000,155.0000000000,679.0000000000,451.0000000000
1717675021982,167.0000000000,2.0000000000,41.0000000000,155.0000000000,671.0000000000,447.0000000000
1717675021982,166.0000000000,2.0000000000,42.0000000000,153.0000000000,664.0000000000,443.0000000000
1717675021982,165.0000000000,2.0000000000,41.0000000000,152.0000000000,657.0000000000,478.0000000000
1717675021982,163.0000000000,2.0000000000,41.0000000000,163.0000000000,651.0000000000,522.0000000000
1717675021982,163.0000000000,2.0000000000,40.0000000000,161.0000000000,644.0000000000,518.0000000000
1717675021983,162.0000000000,2.0000000000,40.0000000000,161.0000000000,638.0000000000,512.0000000000
1717675021983,161.0000000000,2.0000000000,39.0000000000,159.0000000000,631.0000000000,508.0000000000
1717675021998,159.0000000000,1.0000000000,39.0000000000,158.0000000000,626.0000000000,502.0000000000
1717675021999,159.0000000000,2.0000000000,39.0000000000,157.0000000000,620.0000000000,497.0000000000
1717675022000,158.0000000000,2.0000000000,39.0000000000,156.0000000000,613.0000000000,494.0000000000
1717675022000,157.0000000000,2.0000000000,39.0000000000,155.0000000000,608.0000000000,489.0000000000
1717675022000,156.0000000000,2.0000000000,39.0000000000,164.0000000000,603.0000000000,485.0000000000
1717675022000,155.0000000000,2.0000000000,39.0000000000,163.0000000000,596.0000000000,480.0000000000
1717675022000,161.0000000000,2.0000000000,39.0000000000,162.0000000000,591.0000000000,478.0000000000
1717675022001,159.0000000000,2.0000000000,39.0000000000,161.0000000000,585.0000000000,627.0000000000
1717675022001,159.0000000000,2.0000000000,38.0000000000,159.0000000000,582.0000000000,619.0000000000
1717675022021,158.0000000000,2.0000000000,38.0000000000,159.0000000000,575.0000000000,611.0000000000
1717675022023,157.0000000000,2.0000000000,38.0000000000,158.0000000000,571.0000000000,607.0000000000
1717675022024,156.0000000000,3.0000000000,38.0000000000,157.0000000000,566.0000000000,600.0000000000
1717675022024,155.0000000000,3.0000000000,37.0000000000,156.0000000000,561.0000000000,593.0000000000
1717675022024,153.0000000000,2.0000000000,37.0000000000,155.0000000000,556.0000000000,588.0000000000
1717675022024,153.0000000000,3.0000000000,36.0000000000,154.0000000000,551.0000000000,583.0000000000
1717675022024,152.0000000000,2.0000000000,36.0000000000,153.0000000000,547.0000000000,577.0000000000
1717675022024,153.0000000000,3.0000000000,36.0000000000,152.0000000000,543.0000000000,572.0000000000
1717675022024,152.0000000000,2.0000000000,36.0000000000,151.0000000000,537.0000000000,566.0000000000
1717675022024,151.0000000000,3.0000000000,36.0000000000,150.0000000000,632.0000000000,561.0000000000
1717675022025,150.0000000000,2.0000000000,35.0000000000,149.0000000000,624.0000000000,556.0000000000
1717675022025,149.0000000000,2.0000000000,35.0000000000,148.0000000000,620.0000000000,551.0000000000
1717675022025,147.0000000000,2.0000000000,35.0000000000,147.0000000000,612.0000000000,545.0000000000
1717675022092,147.0000000000,2.0000000000,35.0000000000,146.0000000000,606.0000000000,542.0000000000
1717675022094,147.0000000000,2.0000000000,35.0000000000,145.0000000000,600.0000000000,582.0000000000
1717675022094,146.0000000000,3.0000000000,61.0000000000,143.0000000000,595.0000000000,732.0000000000
1717675022095,145.0000000000,2.0000000000,61.0000000000,143.0000000000,589.0000000000,721.0000000000
1717675022096,144.0000000000,3.0000000000,60.0000000000,158.0000000000,583.0000000000,715.0000000000
1717675022097,143.0000000000,2.0000000000,60.0000000000,161.0000000000,577.0000000000,705.0000000000
1717675022098,142.0000000000,2.0000000000,60.0000000000,159.0000000000,571.0000000000,697.0000000000
1717675022099,142.0000000000,2.0000000000,59.0000000000,159.0000000000,568.0000000000,689.0000000000
1717675022100,140.0000000000,2.0000000000,59.0000000000,157.0000000000,561.0000000000,681.0000000000
1717675022101,140.0000000000,2.0000000000,58.0000000000,156.0000000000,556.0000000000,676.0000000000
1717675022102,139.0000000000,6.0000000000,57.0000000000,155.0000000000,551.0000000000,668.0000000000
1717675022102,138.0000000000,6.0000000000,57.0000000000,155.0000000000,547.0000000000,660.0000000000
1717675022103,137.0000000000,6.0000000000,57.0000000000,153.0000000000,542.0000000000,654.0000000000
1717675022104,136.0000000000,6.0000000000,56.0000000000,152.0000000000,536.0000000000,648.0000000000
1717675022104,135.0000000000,5.0000000000,56.0000000000,151.0000000000,532.0000000000,641.0000000000
1717675022104,157.0000000000,6.0000000000,56.0000000000,150.0000000000,528.0000000000,635.0000000000
1717675022105,159.0000000000,6.0000000000,56.0000000000,149.0000000000,524.0000000000,628.0000000000
1717675022106,159.0000000000,6.0000000000,55.0000000000,148.0000000000,519.0000000000,624.0000000000
1717675022106,157.0000000000,5.0000000000,55.0000000000,147.0000000000,515.0000000000,617.0000000000
1717675022106,156.0000000000,5.0000000000,55.0000000000,185.0000000000,512.0000000000,611.0000000000
1717675022107,155.0000000000,4.0000000000,54.0000000000,224.0000000000,508.0000000000,605.0000000000
1717675022107,153.0000000000,4.0000000000,54.0000000000,223.0000000000,503.0000000000,600.0000000000
1717675022107,153.0000000000,4.0000000000,54.0000000000,221.0000000000,499.0000000000,595.0000000000
1717675022107,152.0000000000,4.0000000000,53.0000000000,219.0000000000,496.0000000000,588.0000000000
1717675022108,152.0000000000,5.0000000000,52.0000000000,217.0000000000,492.0000000000,583.0000000000
1717675022108,150.0000000000,5.0000000000,52.0000000000,216.0000000000,487.0000000000,579.0000000000
1717675022108,171.0000000000,4.0000000000,52.0000000000,215.0000000000,483.0000000000,574.0000000000
1717675022109,169.0000000000,4.0000000000,51.0000000000,214.0000000000,481.0000000000,568.0000000000
1717675022109,167.0000000000,4.0000000000,51.0000000000,211.0000000000,478.0000000000,563.0000000000
1717675022109,167.0000000000,4.0000000000,51.0000000000,211.0000000000,473.0000000000,559.0000000000
1717675022109,166.0000000000,4.0000000000,50.0000000000,208.0000000000,470.0000000000,553.0000000000
1717675022110,163.0000000000,5.0000000000,50.0000000000,207.0000000000,467.0000000000,548.0000000000
1717675022110,163.0000000000,6.0000000000,51.0000000000,206.0000000000,463.0000000000,543.0000000000
1717675022110,162.0000000000,6.0000000000,50.0000000000,204.0000000000,514.0000000000,540.0000000000
1717675022110,160.0000000000,5.0000000000,50.0000000000,204.0000000000,508.0000000000,536.0000000000
1717675022111,159.0000000000,6.0000000000,49.0000000000,201.0000000000,504.0000000000,531.0000000000
1717675022111,159.0000000000,5.0000000000,49.0000000000,199.0000000000,499.0000000000,526.0000000000
1717675022111,158.0000000000,5.0000000000,49.0000000000,199.0000000000,495.0000000000,521.0000000000
1717675022111,156.0000000000,5.0000000000,49.0000000000,198.0000000000,491.0000000000,518.0000000000
1717675022112,156.0000000000,5.0000000000,48.0000000000,196.0000000000,486.0000000000,551.0000000000
1717675022112,155.0000000000,5.0000000000,48.0000000000,195.0000000000,483.0000000000,546.0000000000
1717675022113,153.0000000000,5.0000000000,48.0000000000,194.0000000000,478.0000000000,540.0000000000
1717675022113,152.0000000000,5.0000000000,47.0000000000,193.0000000000,474.0000000000,536.0000000000
1717675022113,152.0000000000,5.0000000000,48.0000000000,209.0000000000,470.0000000000,531.0000000000
1717675022114,151.0000000000,4.0000000000,47.0000000000,207.0000000000,467.0000000000,526.0000000000
1717675022114,150.0000000000,4.0000000000,47.0000000000,206.0000000000,463.0000000000,521.0000000000
1717675022114,148.0000000000,5.0000000000,47.0000000000,205.0000000000,459.0000000000,517.0000000000
1717675022115,147.0000000000,4.0000000000,46.0000000000,204.0000000000,455.0000000000,512.0000000000
1717675022142,148.0000000000,5.0000000000,46.0000000000,201.0000000000,452.0000000000,508.0000000000
1717675022142,147.0000000000,4.0000000000,46.0000000000,199.0000000000,449.0000000000,504.0000000000
1717675022142,146.0000000000,4.0000000000,46.0000000000,199.0000000000,446.0000000000,500.0000000000
1717675022143,145.0000000000,4.0000000000,45.0000000000,198.0000000000,444.0000000000,497.0000000000
1717675022143,144.0000000000,4.0000000000,44.0000000000,196.0000000000,509.0000000000,492.0000000000
1717675022143,143.0000000000,4.0000000000,44.0000000000,195.0000000000,504.0000000000,488.0000000000
1717675022143,143.0000000000,7.0000000000,44.0000000000,194.0000000000,498.0000000000,486.0000000000
1717675022143,142.0000000000,7.0000000000,44.0000000000,192.0000000000,494.0000000000,481.0000000000
1717675022143,141.0000000000,6.0000000000,43.0000000000,192.0000000000,489.0000000000,478.0000000000
1717675022143,140.0000000000,7.0000000000,43.0000000000,190.0000000000,486.0000000000,488.0000000000
1717675022144,188.0000000000,7.0000000000,43.0000000000,189.0000000000,480.0000000000,484.0000000000
1717675022144,185.0000000000,7.0000000000,43.0000000000,188.0000000000,476.0000000000,480.0000000000
1717675022144,184.0000000000,6.0000000000,43.0000000000,187.0000000000,473.0000000000,508.0000000000
1717675022144,183.0000000000,7.0000000000,42.0000000000,185.0000000000,469.0000000000,503.0000000000
1717675022145,182.0000000000,6.0000000000,42.0000000000,184.0000000000,465.0000000000,498.0000000000
1717675022163,179.0000000000,7.0000000000,42.0000000000,184.0000000000,461.0000000000,495.0000000000
1717675022164,179.0000000000,9.0000000000,78.0000000000,182.0000000000,457.0000000000,489.0000000000
1717675022164,177.0000000000,8.0000000000,77.0000000000,181.0000000000,454.0000000000,484.0000000000
1717675022164,176.0000000000,8.0000000000,76.0000000000,179.0000000000,541.0000000000,480.0000000000
1717675022164,175.0000000000,8.0000000000,76.0000000000,179.0000000000,535.0000000000,477.0000000000
1717675022164,174.0000000000,7.0000000000,75.0000000000,178.0000000000,529.0000000000,472.0000000000
1717675022164,179.0000000000,7.0000000000,74.0000000000,176.0000000000,525.0000000000,468.0000000000
1717675022164,178.0000000000,8.0000000000,73.0000000000,175.0000000000,519.0000000000,465.0000000000
1717675022165,177.0000000000,7.0000000000,73.0000000000,174.0000000000,515.0000000000,463.0000000000
1717675022165,176.0000000000,7.0000000000,72.0000000000,173.0000000000,510.0000000000,459.0000000000
1717675022165,174.0000000000,7.0000000000,71.0000000000,172.0000000000,507.0000000000,455.0000000000
1717675022184,173.0000000000,7.0000000000,71.0000000000,171.0000000000,502.0000000000,451.0000000000
1717675022184,172.0000000000,7.0000000000,71.0000000000,171.0000000000,496.0000000000,449.0000000000
1717675022184,171.0000000000,7.0000000000,71.0000000000,169.0000000000,492.0000000000,446.0000000000
1717675022185,169.0000000000,7.0000000000,71.0000000000,167.0000000000,489.0000000000,441.0000000000
1717675022185,168.0000000000,7.0000000000,70.0000000000,167.0000000000,484.0000000000,439.0000000000
1717675022185,167.0000000000,7.0000000000,70.0000000000,167.0000000000,480.0000000000,436.0000000000
1717675022185,174.0000000000,7.0000000000,69.0000000000,165.0000000000,476.0000000000,432.0000000000
1717675022185,172.0000000000,7.0000000000,68.0000000000,164.0000000000,473.0000000000,430.0000000000
1717675022185,172.0000000000,7.0000000000,68.0000000000,163.0000000000,468.0000000000,427.0000000000
1717675022185,171.0000000000,7.0000000000,68.0000000000,162.0000000000,465.0000000000,423.0000000000
1717675022185,169.0000000000,7.0000000000,67.0000000000,161.0000000000,461.0000000000,421.0000000000
1717675022198,167.0000000000,7.0000000000,67.0000000000,160.0000000000,459.0000000000,496.0000000000
1717675022199,167.0000000000,7.0000000000,67.0000000000,159.0000000000,455.0000000000,489.0000000000
1717675022199,166.0000000000,7.0000000000,66.0000000000,181.0000000000,450.0000000000,487.0000000000
1717675022199,164.0000000000,7.0000000000,66.0000000000,180.0000000000,446.0000000000,481.0000000000
1717675022199,163.0000000000,7.0000000000,65.0000000000,179.0000000000,443.0000000000,477.0000000000
1717675022199,184.0000000000,7.0000000000,65.0000000000,177.0000000000,440.0000000000,472.0000000000
1717675022200,182.0000000000,7.0000000000,64.0000000000,176.0000000000,436.0000000000,468.0000000000
1717675022200,180.0000000000,7.0000000000,63.0000000000,175.0000000000,433.0000000000,465.0000000000
1717675022200,179.0000000000,7.0000000000,63.0000000000,174.0000000000,431.0000000000,462.0000000000
1717675022218,177.0000000000,7.0000000000,63.0000000000,173.0000000000,477.0000000000,457.0000000000
1717675022218,177.0000000000,8.0000000000,63.0000000000,172.0000000000,564.0000000000,452.0000000000
1717675022219,175.0000000000,7.0000000000,62.0000000000,171.0000000000,558.0000000000,450.0000000000
1717675022219,174.0000000000,7.0000000000,62.0000000000,169.0000000000,551.0000000000,446.0000000000
1717675022219,173.0000000000,7.0000000000,62.0000000000,167.0000000000,547.0000000000,441.0000000000
1717675022219,172.0000000000,7.0000000000,62.0000000000,167.0000000000,543.0000000000,438.0000000000
1717675022219,171.0000000000,7.0000000000,61.0000000000,166.0000000000,537.0000000000,435.0000000000
1717675022219,222.0000000000,7.0000000000,60.0000000000,164.0000000000,531.0000000000,432.0000000000
1717675022219,220.0000000000,7.0000000000,60.0000000000,163.0000000000,527.0000000000,428.0000000000
1717675022219,217.0000000000,7.0000000000,60.0000000000,163.0000000000,524.0000000000,424.0000000000
1717675022219,216.0000000000,7.0000000000,60.0000000000,162.0000000000,518.0000000000,422.0000000000
1717675022234,215.0000000000,7.0000000000,61.0000000000,161.0000000000,513.0000000000,421.0000000000
1717675022234,214.0000000000,11.0000000000,75.0000000000,159.0000000000,539.0000000000,417.0000000000
1717675022234,211.0000000000,12.0000000000,74.0000000000,159.0000000000,532.0000000000,415.0000000000
1717675022235,210.0000000000,12.0000000000,73.0000000000,158.0000000000,528.0000000000,411.0000000000
1717675022235,208.0000000000,11.0000000000,73.0000000000,156.0000000000,523.0000000000,408.0000000000
1717675022235,207.0000000000,11.0000000000,72.0000000000,156.0000000000,519.0000000000,405.0000000000
1717675022253,206.0000000000,11.0000000000,71.0000000000,155.0000000000,513.0000000000,402.0000000000
1717675022255,204.0000000000,11.0000000000,71.0000000000,153.0000000000,508.0000000000,399.0000000000
1717675022256,203.0000000000,11.0000000000,71.0000000000,153.0000000000,504.0000000000,396.0000000000
1717675022256,201.0000000000,11.0000000000,71.0000000000,152.0000000000,499.0000000000,395.0000000000
1717675022256,199.0000000000,11.0000000000,70.0000000000,151.0000000000,495.0000000000,391.0000000000
1717675022257,199.0000000000,11.0000000000,70.0000000000,150.0000000000,491.0000000000,388.0000000000
1717675022257,197.0000000000,10.0000000000,68.0000000000,149.0000000000,486.0000000000,387.0000000000
1717675022257,195.0000000000,10.0000000000,68.0000000000,147.0000000000,482.0000000000,384.0000000000
1717675022257,194.0000000000,10.0000000000,67.0000000000,147.0000000000,478.0000000000,381.0000000000
1717675022258,193.0000000000,10.0000000000,67.0000000000,146.0000000000,473.0000000000,379.0000000000
1717675022258,192.0000000000,11.0000000000,67.0000000000,145.0000000000,470.0000000000,376.0000000000
1717675022258,233.0000000000,10.0000000000,67.0000000000,145.0000000000,467.0000000000,373.0000000000
1717675022258,231.0000000000,10.0000000000,66.0000000000,143.0000000000,463.0000000000,371.0000000000
1717675022287,228.0000000000,9.0000000000,66.0000000000,143.0000000000,460.0000000000,368.0000000000
1717675022287,227.0000000000,10.0000000000,65.0000000000,142.0000000000,455.0000000000,366.0000000000
1717675022287,225.0000000000,10.0000000000,65.0000000000,140.0000000000,451.0000000000,364.0000000000
1717675022287,224.0000000000,9.0000000000,64.0000000000,140.0000000000,448.0000000000,361.0000000000
1717675022287,223.0000000000,9.0000000000,64.0000000000,140.0000000000,444.0000000000,500.0000000000
1717675022287,220.0000000000,9.0000000000,63.0000000000,139.0000000000,441.0000000000,495.0000000000
1717675022288,220.0000000000,9.0000000000,63.0000000000,179.0000000000,438.0000000000,489.0000000000
1717675022288,217.0000000000,9.0000000000,63.0000000000,178.0000000000,434.0000000000,486.0000000000
1717675022288,216.0000000000,9.0000000000,63.0000000000,176.0000000000,431.0000000000,481.0000000000
1717675022288,215.0000000000,9.0000000000,62.0000000000,175.0000000000,428.0000000000,476.0000000000
1717675022288,214.0000000000,9.0000000000,62.0000000000,174.0000000000,425.0000000000,472.0000000000
1717675022288,211.0000000000,9.0000000000,61.0000000000,172.0000000000,444.0000000000,470.0000000000
1717675022289,210.0000000000,9.0000000000,61.0000000000,172.0000000000,440.0000000000,465.0000000000
1717675022289,209.0000000000,8.0000000000,60.0000000000,170.0000000000,435.0000000000,461.0000000000
1717675022289,207.0000000000,9.0000000000,60.0000000000,169.0000000000,523.0000000000,456.0000000000
1717675022289,206.0000000000,9.0000000000,60.0000000000,168.0000000000,516.0000000000,454.0000000000
1717675022289,204.0000000000,7.0000000000,60.0000000000,167.0000000000,511.0000000000,450.0000000000
1717675022303,204.0000000000,8.0000000000,59.0000000000,167.0000000000,508.0000000000,446.0000000000
1717675022303,202.0000000000,7.0000000000,59.0000000000,166.0000000000,503.0000000000,443.0000000000
1717675022303,201.0000000000,8.0000000000,59.0000000000,204.0000000000,629.0000000000,440.0000000000
1717675022303,199.0000000000,8.0000000000,58.0000000000,264.0000000000,627.0000000000,435.0000000000
1717675022304,198.0000000000,7.0000000000,57.0000000000,263.0000000000,622.0000000000,432.0000000000
1717675022304,197.0000000000,9.0000000000,57.0000000000,259.0000000000,615.0000000000,428.0000000000
1717675022304,196.0000000000,12.0000000000,57.0000000000,258.0000000000,608.0000000000,425.0000000000
1717675022318,195.0000000000,11.0000000000,56.0000000000,255.0000000000,601.0000000000,422.0000000000
1717675022318,193.0000000000,11.0000000000,56.0000000000,255.0000000000,595.0000000000,419.0000000000
1717675022319,192.0000000000,12.0000000000,56.0000000000,252.0000000000,588.0000000000,415.0000000000
1717675022319,191.0000000000,12.0000000000,56.0000000000,250.0000000000,583.0000000000,412.0000000000
1717675022319,190.0000000000,12.0000000000,55.0000000000,248.0000000000,577.0000000000,409.0000000000
1717675022319,188.0000000000,11.0000000000,56.0000000000,247.0000000000,571.0000000000,406.0000000000
1717675022319,188.0000000000,11.0000000000,55.0000000000,244.0000000000,566.0000000000,403.0000000000
1717675022319,185.0000000000,11.0000000000,55.0000000000,243.0000000000,560.0000000000,399.0000000000
1717675022333,184.0000000000,11.0000000000,54.0000000000,241.0000000000,556.0000000000,396.0000000000
1717675022333,184.0000000000,10.0000000000,54.0000000000,240.0000000000,551.0000000000,392.0000000000
1717675022333,183.0000000000,11.0000000000,53.0000000000,238.0000000000,545.0000000000,390.0000000000
1717675022333,182.0000000000,10.0000000000,52.0000000000,236.0000000000,540.0000000000,387.0000000000
1717675022333,180.0000000000,10.0000000000,52.0000000000,235.0000000000,536.0000000000,384.0000000000
1717675022333,179.0000000000,10.0000000000,52.0000000000,232.0000000000,531.0000000000,382.0000000000
1717675022349,177.0000000000,10.0000000000,51.0000000000,231.0000000000,526.0000000000,379.0000000000
1717675022349,176.0000000000,9.0000000000,52.0000000000,230.0000000000,520.0000000000,376.0000000000
1717675022349,180.0000000000,10.0000000000,51.0000000000,228.0000000000,516.0000000000,374.0000000000
1717675022350,179.0000000000,9.0000000000,51.0000000000,227.0000000000,513.0000000000,371.0000000000
1717675022350,178.0000000000,9.0000000000,50.0000000000,225.0000000000,508.0000000000,368.0000000000
1717675022350,177.0000000000,9.0000000000,51.0000000000,224.0000000000,504.0000000000,366.0000000000
1717675022350,176.0000000000,9.0000000000,50.0000000000,223.0000000000,499.0000000000,364.0000000000
1717675022350,175.0000000000,9.0000000000,49.0000000000,221.0000000000,496.0000000000,359.0000000000
1717675022350,174.0000000000,9.0000000000,50.0000000000,220.0000000000,492.0000000000,423.0000000000
1717675022366,172.0000000000,9.0000000000,66.0000000000,217.0000000000,487.0000000000,418.0000000000
1717675022367,171.0000000000,9.0000000000,66.0000000000,216.0000000000,483.0000000000,415.0000000000
1717675022367,170.0000000000,8.0000000000,65.0000000000,216.0000000000,480.0000000000,412.0000000000
1717675022367,169.0000000000,8.0000000000,63.0000000000,255.0000000000,477.0000000000,408.0000000000
1717675022368,168.0000000000,9.0000000000,63.0000000000,254.0000000000,472.0000000000,404.0000000000
1717675022368,167.0000000000,9.0000000000,63.0000000000,252.0000000000,469.0000000000,402.0000000000
1717675022368,166.0000000000,9.0000000000,63.0000000000,250.0000000000,465.0000000000,399.0000000000
1717675022368,165.0000000000,8.0000000000,63.0000000000,248.0000000000,463.0000000000,396.0000000000
1717675022368,164.0000000000,21.0000000000,63.0000000000,247.0000000000,459.0000000000,391.0000000000
1717675022368,163.0000000000,20.0000000000,62.0000000000,244.0000000000,455.0000000000,389.0000000000
1717675022369,162.0000000000,21.0000000000,62.0000000000,294.0000000000,451.0000000000,385.0000000000
1717675022384,161.0000000000,20.0000000000,62.0000000000,291.0000000000,448.0000000000,382.0000000000
1717675022384,160.0000000000,20.0000000000,60.0000000000,288.0000000000,444.0000000000,380.0000000000
1717675022384,159.0000000000,20.0000000000,60.0000000000,287.0000000000,440.0000000000,377.0000000000
1717675022384,188.0000000000,19.0000000000,60.0000000000,284.0000000000,437.0000000000,374.0000000000
1717675022384,186.0000000000,19.0000000000,60.0000000000,282.0000000000,433.0000000000,371.0000000000
1717675022385,184.0000000000,19.0000000000,59.0000000000,280.0000000000,431.0000000000,368.0000000000
1717675022385,184.0000000000,19.0000000000,59.0000000000,278.0000000000,428.0000000000,365.0000000000
1717675022385,182.0000000000,19.0000000000,59.0000000000,275.0000000000,423.0000000000,363.0000000000
1717675022401,180.0000000000,19.0000000000,58.0000000000,274.0000000000,420.0000000000,359.0000000000
1717675022402,179.0000000000,19.0000000000,57.0000000000,271.0000000000,418.0000000000,358.0000000000
1717675022402,178.0000000000,19.0000000000,57.0000000000,270.0000000000,415.0000000000,355.0000000000
1717675022402,177.0000000000,19.0000000000,56.0000000000,268.0000000000,412.0000000000,352.0000000000
1717675022402,176.0000000000,19.0000000000,56.0000000000,265.0000000000,409.0000000000,350.0000000000
1717675022402,175.0000000000,18.0000000000,56.0000000000,263.0000000000,407.0000000000,348.0000000000
1717675022402,173.0000000000,18.0000000000,56.0000000000,262.0000000000,403.0000000000,345.0000000000
1717675022403,172.0000000000,18.0000000000,56.0000000000,259.0000000000,399.0000000000,344.0000000000
1717675022417,171.0000000000,18.0000000000,55.0000000000,259.0000000000,398.0000000000,342.0000000000
1717675022418,169.0000000000,18.0000000000,55.0000000000,255.0000000000,395.0000000000,339.0000000000
1717675022418,169.0000000000,17.0000000000,55.0000000000,255.0000000000,391.0000000000,337.0000000000
1717675022418,167.0000000000,18.0000000000,54.0000000000,253.0000000000,389.0000000000,335.0000000000
1717675022418,167.0000000000,17.0000000000,54.0000000000,252.0000000000,387.0000000000,332.0000000000
1717675022418,165.0000000000,17.0000000000,54.0000000000,249.0000000000,384.0000000000,331.0000000000
1717675022418,164.0000000000,17.0000000000,53.0000000000,248.0000000000,381.0000000000,327.0000000000
1717675022418,164.0000000000,17.0000000000,52.0000000000,246.0000000000,379.0000000000,326.0000000000
1717675022418,163.0000000000,17.0000000000,52.0000000000,244.0000000000,376.0000000000,324.0000000000
1717675022432,161.0000000000,17.0000000000,52.0000000000,243.0000000000,374.0000000000,322.0000000000
1717675022433,161.0000000000,16.0000000000,51.0000000000,241.0000000000,371.0000000000,319.0000000000
1717675022433,159.0000000000,16.0000000000,51.0000000000,240.0000000000,438.0000000000,405.0000000000
1717675022433,159.0000000000,16.0000000000,51.0000000000,238.0000000000,432.0000000000,400.0000000000
1717675022433,158.0000000000,16.0000000000,50.0000000000,236.0000000000,428.0000000000,396.0000000000
1717675022433,156.0000000000,15.0000000000,51.0000000000,236.0000000000,423.0000000000,393.0000000000
1717675022433,156.0000000000,16.0000000000,50.0000000000,233.0000000000,420.0000000000,391.0000000000
1717675022433,155.0000000000,15.0000000000,49.0000000000,231.0000000000,417.0000000000,387.0000000000
1717675022453,154.0000000000,15.0000000000,49.0000000000,276.0000000000,413.0000000000,384.0000000000
1717675022454,153.0000000000,15.0000000000,49.0000000000,284.0000000000,409.0000000000,380.0000000000
1717675022454,152.0000000000,15.0000000000,49.0000000000,281.0000000000,407.0000000000,377.0000000000
1717675022454,152.0000000000,15.0000000000,48.0000000000,280.0000000000,403.0000000000,375.0000000000
1717675022455,151.0000000000,15.0000000000,48.0000000000,277.0000000000,400.0000000000,371.0000000000
1717675022455,150.0000000000,15.0000000000,48.0000000000,275.0000000000,398.0000000000,368.0000000000
1717675022456,148.0000000000,15.0000000000,48.0000000000,273.0000000000,393.0000000000,366.0000000000
1717675022456,147.0000000000,15.0000000000,76.0000000000,271.0000000000,391.0000000000,363.0000000000
1717675022456,147.0000000000,15.0000000000,76.0000000000,268.0000000000,387.0000000000,359.0000000000
1717675022457,146.0000000000,15.0000000000,75.0000000000,267.0000000000,384.0000000000,357.0000000000
1717675022457,159.0000000000,15.0000000000,75.0000000000,265.0000000000,381.0000000000,355.0000000000
1717675022474,203.0000000000,15.0000000000,73.0000000000,263.0000000000,378.0000000000,352.0000000000
1717675022475,201.0000000000,15.0000000000,73.0000000000,262.0000000000,376.0000000000,350.0000000000
1717675022475,199.0000000000,14.0000000000,72.0000000000,259.0000000000,372.0000000000,347.0000000000
1717675022475,198.0000000000,15.0000000000,71.0000000000,257.0000000000,370.0000000000,355.0000000000
1717675022475,196.0000000000,14.0000000000,71.0000000000,255.0000000000,368.0000000000,543.0000000000
1717675022475,195.0000000000,14.0000000000,71.0000000000,254.0000000000,444.0000000000,582.0000000000
1717675022475,193.0000000000,14.0000000000,71.0000000000,252.0000000000,439.0000000000,575.0000000000
1717675022476,192.0000000000,13.0000000000,70.0000000000,251.0000000000,435.0000000000,568.0000000000
1717675022476,191.0000000000,13.0000000000,70.0000000000,248.0000000000,432.0000000000,563.0000000000
1717675022476,190.0000000000,14.0000000000,69.0000000000,247.0000000000,428.0000000000,557.0000000000
1717675022493,188.0000000000,13.0000000000,69.0000000000,244.0000000000,423.0000000000,551.0000000000
1717675022494,188.0000000000,13.0000000000,67.0000000000,243.0000000000,420.0000000000,545.0000000000
1717675022494,185.0000000000,13.0000000000,67.0000000000,241.0000000000,416.0000000000,540.0000000000
1717675022494,184.0000000000,13.0000000000,67.0000000000,240.0000000000,413.0000000000,536.0000000000
1717675022494,183.0000000000,13.0000000000,67.0000000000,238.0000000000,409.0000000000,531.0000000000
1717675022494,182.0000000000,13.0000000000,67.0000000000,237.0000000000,435.0000000000,527.0000000000
1717675022494,180.0000000000,12.0000000000,65.0000000000,236.0000000000,504.0000000000,521.0000000000
1717675022494,179.0000000000,12.0000000000,65.0000000000,234.0000000000,499.0000000000,517.0000000000
1717675022495,178.0000000000,12.0000000000,65.0000000000,231.0000000000,494.0000000000,512.0000000000
1717675022495,176.0000000000,12.0000000000,65.0000000000,231.0000000000,489.0000000000,508.0000000000
1717675022495,176.0000000000,12.0000000000,64.0000000000,230.0000000000,556.0000000000,503.0000000000
1717675022513,174.0000000000,12.0000000000,63.0000000000,227.0000000000,548.0000000000,499.0000000000
1717675022515,173.0000000000,12.0000000000,63.0000000000,226.0000000000,543.0000000000,494.0000000000
1717675022516,172.0000000000,12.0000000000,63.0000000000,224.0000000000,540.0000000000,489.0000000000
1717675022516,171.0000000000,13.0000000000,63.0000000000,224.0000000000,534.0000000000,486.0000000000
1717675022517,170.0000000000,12.0000000000,63.0000000000,222.0000000000,528.0000000000,481.0000000000
1717675022517,169.0000000000,12.0000000000,62.0000000000,220.0000000000,524.0000000000,477.0000000000
1717675022517,167.0000000000,13.0000000000,62.0000000000,219.0000000000,518.0000000000,491.0000000000
1717675022517,167.0000000000,13.0000000000,61.0000000000,217.0000000000,513.0000000000,511.0000000000
1717675022518,166.0000000000,13.0000000000,60.0000000000,216.0000000000,508.0000000000,505.0000000000
1717675022518,164.0000000000,12.0000000000,60.0000000000,215.0000000000,504.0000000000,501.0000000000
1717675022519,163.0000000000,12.0000000000,60.0000000000,217.0000000000,499.0000000000,496.0000000000
1717675022519,162.0000000000,12.0000000000,59.0000000000,241.0000000000,495.0000000000,492.0000000000
1717675022550,161.0000000000,12.0000000000,59.0000000000,240.0000000000,491.0000000000,487.0000000000
1717675022552,159.0000000000,12.0000000000,59.0000000000,238.0000000000,487.0000000000,482.0000000000
1717675022552,159.0000000000,12.0000000000,59.0000000000,236.0000000000,482.0000000000,478.0000000000
1717675022552,158.0000000000,12.0000000000,57.0000000000,235.0000000000,479.0000000000,473.0000000000
1717675022552,157.0000000000,12.0000000000,57.0000000000,231.0000000000,475.0000000000,470.0000000000
1717675022553,156.0000000000,12.0000000000,57.0000000000,231.0000000000,471.0000000000,465.0000000000
1717675022553,155.0000000000,11.0000000000,57.0000000000,229.0000000000,467.0000000000,462.0000000000
1717675022553,154.0000000000,12.0000000000,56.0000000000,227.0000000000,463.0000000000,504.0000000000
1717675022553,265.0000000000,12.0000000000,56.0000000000,226.0000000000,459.0000000000,596.0000000000
1717675022554,261.0000000000,12.0000000000,56.0000000000,224.0000000000,455.0000000000,589.0000000000
1717675022554,259.0000000000,11.0000000000,56.0000000000,223.0000000000,457.0000000000,583.0000000000
1717675022554,255.0000000000,12.0000000000,56.0000000000,221.0000000000,453.0000000000,577.0000000000
