timestamp,Channel 1,Channel 2,Channel 3,Channel 4,Channel 5,Channel 6
1717675032897,40.0000000000,0.0000000000,6.0000000000,67.0000000000,144.0000000000,13.0000000000
1717675032898,40.0000000000,0.0000000000,6.0000000000,67.0000000000,143.0000000000,13.0000000000
1717675032898,39.0000000000,0.0000000000,6.0000000000,67.0000000000,143.0000000000,14.0000000000
1717675032898,39.0000000000,0.0000000000,6.0000000000,66.0000000000,142.0000000000,13.0000000000
1717675032898,39.0000000000,0.0000000000,5.0000000000,66.0000000000,142.0000000000,13.0000000000
1717675032898,39.0000000000,0.0000000000,6.0000000000,65.0000000000,141.0000000000,13.0000000000
1717675032898,39.0000000000,0.0000000000,5.0000000000,65.0000000000,140.0000000000,13.0000000000
1717675032898,39.0000000000,0.0000000000,6.0000000000,65.0000000000,179.0000000000,13.0000000000
1717675032898,39.0000000000,0.0000000000,5.0000000000,64.0000000000,196.0000000000,12.0000000000
1717675032898,39.0000000000,0.0000000000,5.0000000000,63.0000000000,195.0000000000,13.0000000000
1717675032898,39.0000000000,0.0000000000,6.0000000000,63.0000000000,193.0000000000,13.0000000000
1717675032899,38.0000000000,0.0000000000,4.0000000000,63.0000000000,192.0000000000,12.0000000000
1717675032899,39.0000000000,0.0000000000,5.0000000000,63.0000000000,191.0000000000,13.0000000000
1717675032899,38.0000000000,0.0000000000,4.0000000000,63.0000000000,189.0000000000,12.0000000000
1717675032899,38.0000000000,0.0000000000,4.0000000000,63.0000000000,188.0000000000,12.0000000000
1717675032899,38.0000000000,0.0000000000,5.0000000000,62.0000000000,187.0000000000,12.0000000000
1717675032916,37.0000000000,0.0000000000,5.0000000000,62.0000000000,186.0000000000,12.0000000000
1717675032919,38.0000000000,0.0000000000,5.0000000000,62.0000000000,184.0000000000,12.0000000000
1717675032919,38.0000000000,0.0000000000,4.0000000000,61.0000000000,184.0000000000,12.0000000000
1717675032920,37.0000000000,0.0000000000,5.0000000000,61.0000000000,183.0000000000,12.0000000000
1717675032920,36.0000000000,0.0000000000,4.0000000000,60.0000000000,183.0000000000,12.0000000000
1717675032921,36.0000000000,0.0000000000,5.0000000000,60.0000000000,182.0000000000,12.0000000000
1717675032921,36.0000000000,0.0000000000,4.0000000000,60.0000000000,180.0000000000,12.0000000000
1717675032922,36.0000000000,0.0000000000,4.0000000000,59.0000000000,179.0000000000,12.0000000000
1717675032923,35.0000000000,0.0000000000,4.0000000000,60.0000000000,179.0000000000,12.0000000000
1717675032923,35.0000000000,0.0000000000,4.0000000000,59.0000000000,177.0000000000,12.0000000000
1717675032924,35.0000000000,0.0000000000,4.0000000000,60.0000000000,176.0000000000,11.0000000000
1717675032924,35.0000000000,0.0000000000,4.0000000000,68.0000000000,176.0000000000,11.0000000000
1717675032924,35.0000000000,0.0000000000,4.0000000000,68.0000000000,175.0000000000,11.0000000000
1717675032925,35.0000000000,0.0000000000,4.0000000000,67.0000000000,174.0000000000,12.0000000000
1717675032925,35.0000000000,0.0000000000,4.0000000000,67.0000000000,173.0000000000,11.0000000000
1717675032925,35.0000000000,0.0000000000,4.0000000000,67.0000000000,172.0000000000,11.0000000000
1717675032956,35.0000000000,0.0000000000,4.0000000000,66.0000000000,171.0000000000,11.0000000000
1717675032957,35.0000000000,0.0000000000,4.0000000000,65.0000000000,171.0000000000,11.0000000000
1717675032957,35.0000000000,0.0000000000,4.0000000000,65.0000000000,169.0000000000,11.0000000000
1717675032957,34.0000000000,0.0000000000,3.0000000000,128.0000000000,168.0000000000,11.0000000000
1717675032957,34.0000000000,0.0000000000,4.0000000000,127.0000000000,167.0000000000,11.0000000000
1717675032957,34.0000000000,0.0000000000,4.0000000000,126.0000000000,167.0000000000,11.0000000000
1717675032957,34.0000000000,0.0000000000,4.0000000000,124.0000000000,166.0000000000,11.0000000000
1717675032957,33.0000000000,0.0000000000,4.0000000000,124.0000000000,166.0000000000,11.0000000000
1717675032958,33.0000000000,0.0000000000,3.0000000000,123.0000000000,163.0000000000,11.0000000000
1717675032958,33.0000000000,0.0000000000,4.0000000000,123.0000000000,163.0000000000,11.0000000000
1717675032958,33.0000000000,0.0000000000,4.0000000000,121.0000000000,163.0000000000,11.0000000000
1717675032958,33.0000000000,0.0000000000,4.0000000000,120.0000000000,161.0000000000,10.0000000000
1717675032958,32.0000000000,0.0000000000,4.0000000000,120.0000000000,161.0000000000,10.0000000000
1717675032958,32.0000000000,0.0000000000,4.0000000000,120.0000000000,159.0000000000,9.0000000000
1717675032958,32.0000000000,0.0000000000,3.0000000000,119.0000000000,159.0000000000,9.0000000000
1717675032958,31.0000000000,0.0000000000,4.0000000000,117.0000000000,159.0000000000,9.0000000000
1717675032958,31.0000000000,0.0000000000,3.0000000000,117.0000000000,158.0000000000,10.0000000000
1717675032958,31.0000000000,0.0000000000,4.0000000000,116.0000000000,157.0000000000,10.0000000000
1717675032958,31.0000000000,0.0000000000,4.0000000000,115.0000000000,156.0000000000,9.0000000000
1717675032959,31.0000000000,0.0000000000,3.0000000000,115.0000000000,156.0000000000,10.0000000000
1717675032982,31.0000000000,0.0000000000,4.0000000000,115.0000000000,155.0000000000,10.0000000000
1717675032983,31.0000000000,0.0000000000,4.0000000000,114.0000000000,153.0000000000,11.0000000000
1717675032983,31.0000000000,0.0000000000,3.0000000000,113.0000000000,153.0000000000,11.0000000000
1717675032983,31.0000000000,0.0000000000,4.0000000000,112.0000000000,152.0000000000,11.0000000000
1717675032983,31.0000000000,0.0000000000,4.0000000000,112.0000000000,152.0000000000,11.0000000000
1717675032983,31.0000000000,0.0000000000,3.0000000000,111.0000000000,151.0000000000,11.0000000000
1717675032983,30.0000000000,0.0000000000,4.0000000000,111.0000000000,150.0000000000,11.0000000000
1717675032983,30.0000000000,0.0000000000,3.0000000000,110.0000000000,148.0000000000,10.0000000000
1717675032984,30.0000000000,0.0000000000,3.0000000000,109.0000000000,184.0000000000,11.0000000000
1717675032984,30.0000000000,0.0000000000,3.0000000000,108.0000000000,231.0000000000,10.0000000000
1717675032984,29.0000000000,0.0000000000,4.0000000000,108.0000000000,228.0000000000,10.0000000000
1717675032984,30.0000000000,0.0000000000,4.0000000000,108.0000000000,227.0000000000,11.0000000000
1717675032984,30.0000000000,0.0000000000,3.0000000000,108.0000000000,225.0000000000,12.0000000000
1717675032984,29.0000000000,0.0000000000,3.0000000000,106.0000000000,224.0000000000,12.0000000000
1717675032984,29.0000000000,0.0000000000,3.0000000000,105.0000000000,271.0000000000,12.0000000000
1717675032984,29.0000000000,0.0000000000,3.0000000000,105.0000000000,295.0000000000,12.0000000000
1717675032984,28.0000000000,0.0000000000,3.0000000000,103.0000000000,293.0000000000,12.0000000000
1717675032984,28.0000000000,0.0000000000,3.0000000000,103.0000000000,291.0000000000,12.0000000000
1717675032999,28.0000000000,0.0000000000,3.0000000000,103.0000000000,289.0000000000,12.0000000000
1717675033000,28.0000000000,0.0000000000,3.0000000000,103.0000000000,287.0000000000,12.0000000000
1717675033000,28.0000000000,0.0000000000,3.0000000000,102.0000000000,285.0000000000,12.0000000000
1717675033000,28.0000000000,0.0000000000,6.0000000000,102.0000000000,283.0000000000,12.0000000000
1717675033000,28.0000000000,0.0000000000,7.0000000000,101.0000000000,281.0000000000,12.0000000000
1717675033000,28.0000000000,0.0000000000,7.0000000000,100.0000000000,280.0000000000,12.0000000000
1717675033001,27.0000000000,0.0000000000,7.0000000000,100.0000000000,278.0000000000,11.0000000000
1717675033001,27.0000000000,0.0000000000,7.0000000000,143.0000000000,276.0000000000,12.0000000000
1717675033001,28.0000000000,0.0000000000,7.0000000000,141.0000000000,275.0000000000,12.0000000000
1717675033001,27.0000000000,0.0000000000,7.0000000000,140.0000000000,273.0000000000,11.0000000000
1717675033026,27.0000000000,0.0000000000,7.0000000000,140.0000000000,271.0000000000,11.0000000000
1717675033027,35.0000000000,0.0000000000,7.0000000000,138.0000000000,270.0000000000,11.0000000000
1717675033027,34.0000000000,0.0000000000,7.0000000000,137.0000000000,268.0000000000,25.0000000000
1717675033027,33.0000000000,0.0000000000,7.0000000000,135.0000000000,267.0000000000,33.0000000000
1717675033027,33.0000000000,0.0000000000,7.0000000000,135.0000000000,266.0000000000,32.0000000000
1717675033027,33.0000000000,0.0000000000,7.0000000000,135.0000000000,263.0000000000,31.0000000000
1717675033027,33.0000000000,0.0000000000,7.0000000000,134.0000000000,263.0000000000,31.0000000000
1717675033027,33.0000000000,0.0000000000,7.0000000000,133.0000000000,262.0000000000,31.0000000000
1717675033028,33.0000000000,0.0000000000,7.0000000000,132.0000000000,260.0000000000,31.0000000000
1717675033028,31.0000000000,0.0000000000,7.0000000000,131.0000000000,258.0000000000,31.0000000000
1717675033028,31.0000000000,0.0000000000,7.0000000000,131.0000000000,257.0000000000,31.0000000000
1717675033028,32.0000000000,0.0000000000,7.0000000000,130.0000000000,255.0000000000,31.0000000000
1717675033028,31.0000000000,0.0000000000,7.0000000000,129.0000000000,254.0000000000,31.0000000000
1717675033028,31.0000000000,0.0000000000,7.0000000000,128.0000000000,253.0000000000,57.0000000000
1717675033028,31.0000000000,0.0000000000,7.0000000000,186.0000000000,252.0000000000,56.0000000000
1717675033046,31.0000000000,0.0000000000,7.0000000000,183.0000000000,249.0000000000,56.0000000000
1717675033047,31.0000000000,0.0000000000,7.0000000000,182.0000000000,248.0000000000,56.0000000000
1717675033047,31.0000000000,0.0000000000,7.0000000000,180.0000000000,248.0000000000,55.0000000000
1717675033047,31.0000000000,0.0000000000,7.0000000000,179.0000000000,247.0000000000,55.0000000000
1717675033048,31.0000000000,0.0000000000,7.0000000000,179.0000000000,245.0000000000,54.0000000000
1717675033048,31.0000000000,0.0000000000,12.0000000000,177.0000000000,243.0000000000,54.0000000000
1717675033048,30.0000000000,0.0000000000,12.0000000000,176.0000000000,242.0000000000,54.0000000000
1717675033048,30.0000000000,0.0000000000,12.0000000000,175.0000000000,255.0000000000,56.0000000000
1717675033049,30.0000000000,0.0000000000,11.0000000000,174.0000000000,300.0000000000,180.0000000000
1717675033049,78.0000000000,0.0000000000,12.0000000000,233.0000000000,297.0000000000,192.0000000000
1717675033049,77.0000000000,0.0000000000,11.0000000000,231.0000000000,295.0000000000,190.0000000000
1717675033049,76.0000000000,0.0000000000,12.0000000000,229.0000000000,292.0000000000,188.0000000000
1717675033080,76.0000000000,0.0000000000,11.0000000000,227.0000000000,291.0000000000,187.0000000000
1717675033081,75.0000000000,0.0000000000,12.0000000000,225.0000000000,323.0000000000,185.0000000000
1717675033081,74.0000000000,0.0000000000,11.0000000000,224.0000000000,376.0000000000,184.0000000000
1717675033081,73.0000000000,0.0000000000,11.0000000000,222.0000000000,373.0000000000,183.0000000000
1717675033082,73.0000000000,0.0000000000,11.0000000000,221.0000000000,369.0000000000,182.0000000000
1717675033082,73.0000000000,0.0000000000,10.0000000000,220.0000000000,367.0000000000,180.0000000000
1717675033082,71.0000000000,0.0000000000,11.0000000000,217.0000000000,364.0000000000,179.0000000000
1717675033082,71.0000000000,0.0000000000,11.0000000000,216.0000000000,361.0000000000,209.0000000000
1717675033083,71.0000000000,0.0000000000,10.0000000000,215.0000000000,359.0000000000,206.0000000000
1717675033083,71.0000000000,0.0000000000,11.0000000000,214.0000000000,355.0000000000,204.0000000000
1717675033083,71.0000000000,0.0000000000,9.0000000000,212.0000000000,415.0000000000,203.0000000000
1717675033084,70.0000000000,0.0000000000,11.0000000000,211.0000000000,447.0000000000,201.0000000000
1717675033084,69.0000000000,0.0000000000,10.0000000000,209.0000000000,443.0000000000,199.0000000000
1717675033084,68.0000000000,1.0000000000,11.0000000000,208.0000000000,439.0000000000,199.0000000000
1717675033084,68.0000000000,1.0000000000,11.0000000000,207.0000000000,435.0000000000,198.0000000000
1717675033084,67.0000000000,1.0000000000,10.0000000000,206.0000000000,432.0000000000,196.0000000000
1717675033085,67.0000000000,1.0000000000,19.0000000000,204.0000000000,428.0000000000,195.0000000000
1717675033085,67.0000000000,1.0000000000,19.0000000000,203.0000000000,424.0000000000,193.0000000000
1717675033085,67.0000000000,1.0000000000,19.0000000000,202.0000000000,421.0000000000,193.0000000000
1717675033085,67.0000000000,1.0000000000,19.0000000000,199.0000000000,417.0000000000,192.0000000000
1717675033086,66.0000000000,1.0000000000,19.0000000000,199.0000000000,415.0000000000,190.0000000000
1717675033099,65.0000000000,1.0000000000,18.0000000000,198.0000000000,412.0000000000,189.0000000000
1717675033100,65.0000000000,1.0000000000,18.0000000000,197.0000000000,409.0000000000,188.0000000000
1717675033100,65.0000000000,1.0000000000,18.0000000000,195.0000000000,406.0000000000,187.0000000000
1717675033100,64.0000000000,1.0000000000,18.0000000000,195.0000000000,403.0000000000,185.0000000000
1717675033100,63.0000000000,1.0000000000,18.0000000000,193.0000000000,399.0000000000,184.0000000000
1717675033100,63.0000000000,1.0000000000,18.0000000000,192.0000000000,397.0000000000,184.0000000000
1717675033101,63.0000000000,1.0000000000,18.0000000000,191.0000000000,395.0000000000,182.0000000000
1717675033101,63.0000000000,1.0000000000,17.0000000000,190.0000000000,391.0000000000,182.0000000000
1717675033101,62.0000000000,0.0000000000,17.0000000000,188.0000000000,389.0000000000,180.0000000000
1717675033115,62.0000000000,1.0000000000,17.0000000000,188.0000000000,385.0000000000,179.0000000000
1717675033116,62.0000000000,0.0000000000,17.0000000000,187.0000000000,384.0000000000,177.0000000000
1717675033116,62.0000000000,0.0000000000,17.0000000000,185.0000000000,381.0000000000,176.0000000000
1717675033116,61.0000000000,1.0000000000,17.0000000000,184.0000000000,378.0000000000,176.0000000000
1717675033116,60.0000000000,0.0000000000,17.0000000000,184.0000000000,376.0000000000,175.0000000000
1717675033116,60.0000000000,1.0000000000,16.0000000000,183.0000000000,372.0000000000,174.0000000000
1717675033116,60.0000000000,1.0000000000,16.0000000000,181.0000000000,370.0000000000,172.0000000000
1717675033117,60.0000000000,1.0000000000,16.0000000000,179.0000000000,368.0000000000,172.0000000000
1717675033117,60.0000000000,1.0000000000,16.0000000000,179.0000000000,365.0000000000,171.0000000000
1717675033139,59.0000000000,1.0000000000,15.0000000000,178.0000000000,364.0000000000,287.0000000000
1717675033140,59.0000000000,1.0000000000,16.0000000000,177.0000000000,360.0000000000,359.0000000000
1717675033140,92.0000000000,0.0000000000,16.0000000000,176.0000000000,359.0000000000,353.0000000000
1717675033140,91.0000000000,0.0000000000,15.0000000000,175.0000000000,356.0000000000,350.0000000000
1717675033140,89.0000000000,0.0000000000,15.0000000000,174.0000000000,353.0000000000,348.0000000000
1717675033140,89.0000000000,1.0000000000,15.0000000000,172.0000000000,352.0000000000,344.0000000000
1717675033141,88.0000000000,1.0000000000,15.0000000000,180.0000000000,349.0000000000,343.0000000000
1717675033141,88.0000000000,0.0000000000,15.0000000000,179.0000000000,348.0000000000,339.0000000000
1717675033141,87.0000000000,0.0000000000,15.0000000000,178.0000000000,344.0000000000,337.0000000000
1717675033141,87.0000000000,0.0000000000,15.0000000000,177.0000000000,342.0000000000,335.0000000000
1717675033141,86.0000000000,0.0000000000,15.0000000000,176.0000000000,340.0000000000,332.0000000000
1717675033141,86.0000000000,1.0000000000,15.0000000000,174.0000000000,338.0000000000,330.0000000000
1717675033141,85.0000000000,0.0000000000,15.0000000000,174.0000000000,336.0000000000,327.0000000000
1717675033141,84.0000000000,0.0000000000,15.0000000000,172.0000000000,334.0000000000,326.0000000000
1717675033154,83.0000000000,0.0000000000,15.0000000000,171.0000000000,332.0000000000,323.0000000000
1717675033155,83.0000000000,0.0000000000,15.0000000000,170.0000000000,330.0000000000,321.0000000000
1717675033155,83.0000000000,1.0000000000,14.0000000000,169.0000000000,327.0000000000,319.0000000000
1717675033155,82.0000000000,0.0000000000,14.0000000000,167.0000000000,326.0000000000,316.0000000000
1717675033156,81.0000000000,1.0000000000,14.0000000000,167.0000000000,324.0000000000,315.0000000000
1717675033156,81.0000000000,0.0000000000,14.0000000000,167.0000000000,322.0000000000,312.0000000000
1717675033157,80.0000000000,0.0000000000,15.0000000000,209.0000000000,319.0000000000,310.0000000000
1717675033157,80.0000000000,0.0000000000,14.0000000000,208.0000000000,318.0000000000,308.0000000000
1717675033157,79.0000000000,1.0000000000,14.0000000000,207.0000000000,316.0000000000,306.0000000000
1717675033172,79.0000000000,0.0000000000,14.0000000000,206.0000000000,412.0000000000,305.0000000000
1717675033173,79.0000000000,0.0000000000,14.0000000000,204.0000000000,408.0000000000,302.0000000000
1717675033173,78.0000000000,0.0000000000,14.0000000000,203.0000000000,404.0000000000,301.0000000000
1717675033173,78.0000000000,0.0000000000,14.0000000000,201.0000000000,401.0000000000,299.0000000000
1717675033173,77.0000000000,0.0000000000,14.0000000000,199.0000000000,399.0000000000,297.0000000000
1717675033173,76.0000000000,0.0000000000,13.0000000000,199.0000000000,396.0000000000,295.0000000000
1717675033173,76.0000000000,0.0000000000,13.0000000000,198.0000000000,393.0000000000,293.0000000000
1717675033174,76.0000000000,0.0000000000,13.0000000000,196.0000000000,390.0000000000,291.0000000000
1717675033174,75.0000000000,3.0000000000,47.0000000000,195.0000000000,387.0000000000,289.0000000000
1717675033174,75.0000000000,3.0000000000,47.0000000000,193.0000000000,384.0000000000,287.0000000000
1717675033191,74.0000000000,3.0000000000,46.0000000000,192.0000000000,381.0000000000,286.0000000000
1717675033193,73.0000000000,3.0000000000,46.0000000000,192.0000000000,379.0000000000,284.0000000000
1717675033193,73.0000000000,4.0000000000,46.0000000000,190.0000000000,376.0000000000,283.0000000000
1717675033193,72.0000000000,3.0000000000,44.0000000000,190.0000000000,374.0000000000,281.0000000000
1717675033193,71.0000000000,3.0000000000,45.0000000000,188.0000000000,371.0000000000,280.0000000000
1717675033193,71.0000000000,3.0000000000,44.0000000000,187.0000000000,368.0000000000,278.0000000000
1717675033194,71.0000000000,3.0000000000,44.0000000000,185.0000000000,366.0000000000,275.0000000000
1717675033194,71.0000000000,3.0000000000,44.0000000000,185.0000000000,363.0000000000,274.0000000000
1717675033194,71.0000000000,3.0000000000,44.0000000000,243.0000000000,361.0000000000,271.0000000000
1717675033195,70.0000000000,3.0000000000,43.0000000000,241.0000000000,358.0000000000,271.0000000000
1717675033195,70.0000000000,3.0000000000,43.0000000000,239.0000000000,355.0000000000,269.0000000000
1717675033217,70.0000000000,3.0000000000,43.0000000000,238.0000000000,353.0000000000,268.0000000000
1717675033217,70.0000000000,3.0000000000,42.0000000000,236.0000000000,351.0000000000,266.0000000000
1717675033217,68.0000000000,3.0000000000,41.0000000000,234.0000000000,348.0000000000,263.0000000000
1717675033218,68.0000000000,3.0000000000,41.0000000000,233.0000000000,346.0000000000,263.0000000000
1717675033218,68.0000000000,3.0000000000,41.0000000000,231.0000000000,344.0000000000,262.0000000000
1717675033218,67.0000000000,3.0000000000,41.0000000000,230.0000000000,342.0000000000,259.0000000000
1717675033218,67.0000000000,3.0000000000,41.0000000000,227.0000000000,339.0000000000,259.0000000000
1717675033218,67.0000000000,3.0000000000,40.0000000000,226.0000000000,337.0000000000,257.0000000000
1717675033218,66.0000000000,3.0000000000,40.0000000000,225.0000000000,335.0000000000,255.0000000000
1717675033218,66.0000000000,3.0000000000,39.0000000000,224.0000000000,333.0000000000,254.0000000000
1717675033218,66.0000000000,3.0000000000,39.0000000000,222.0000000000,331.0000000000,252.0000000000
1717675033219,65.0000000000,3.0000000000,39.0000000000,221.0000000000,327.0000000000,252.0000000000
1717675033219,64.0000000000,3.0000000000,39.0000000000,219.0000000000,327.0000000000,249.0000000000
1717675033219,63.0000000000,3.0000000000,39.0000000000,217.0000000000,324.0000000000,248.0000000000
1717675033236,63.0000000000,3.0000000000,39.0000000000,216.0000000000,323.0000000000,247.0000000000
1717675033238,63.0000000000,3.0000000000,39.0000000000,216.0000000000,319.0000000000,246.0000000000
1717675033238,63.0000000000,3.0000000000,39.0000000000,214.0000000000,318.0000000000,243.0000000000
1717675033238,63.0000000000,2.0000000000,38.0000000000,212.0000000000,316.0000000000,351.0000000000
1717675033238,63.0000000000,3.0000000000,38.0000000000,211.0000000000,315.0000000000,348.0000000000
1717675033239,62.0000000000,3.0000000000,38.0000000000,209.0000000000,313.0000000000,344.0000000000
1717675033239,62.0000000000,3.0000000000,37.0000000000,209.0000000000,311.0000000000,342.0000000000
1717675033239,62.0000000000,3.0000000000,36.0000000000,207.0000000000,310.0000000000,339.0000000000
1717675033239,61.0000000000,3.0000000000,37.0000000000,206.0000000000,308.0000000000,336.0000000000
1717675033240,60.0000000000,3.0000000000,36.0000000000,204.0000000000,307.0000000000,335.0000000000
1717675033240,60.0000000000,3.0000000000,36.0000000000,204.0000000000,305.0000000000,332.0000000000
1717675033264,60.0000000000,3.0000000000,36.0000000000,203.0000000000,303.0000000000,329.0000000000
1717675033265,60.0000000000,3.0000000000,35.0000000000,201.0000000000,301.0000000000,327.0000000000
1717675033265,60.0000000000,3.0000000000,35.0000000000,199.0000000000,300.0000000000,419.0000000000
1717675033265,60.0000000000,4.0000000000,35.0000000000,199.0000000000,297.0000000000,414.0000000000
1717675033265,59.0000000000,5.0000000000,35.0000000000,198.0000000000,295.0000000000,409.0000000000
1717675033265,59.0000000000,5.0000000000,35.0000000000,196.0000000000,297.0000000000,419.0000000000
1717675033265,59.0000000000,5.0000000000,35.0000000000,195.0000000000,295.0000000000,560.0000000000
1717675033266,58.0000000000,6.0000000000,38.0000000000,194.0000000000,301.0000000000,553.0000000000
1717675033266,57.0000000000,5.0000000000,38.0000000000,193.0000000000,344.0000000000,547.0000000000
1717675033266,57.0000000000,4.0000000000,38.0000000000,192.0000000000,341.0000000000,540.0000000000
1717675033266,57.0000000000,6.0000000000,38.0000000000,191.0000000000,338.0000000000,536.0000000000
1717675033266,57.0000000000,5.0000000000,37.0000000000,190.0000000000,335.0000000000,531.0000000000
1717675033266,56.0000000000,5.0000000000,37.0000000000,188.0000000000,333.0000000000,527.0000000000
1717675033266,56.0000000000,4.0000000000,36.0000000000,188.0000000000,332.0000000000,522.0000000000
1717675033286,56.0000000000,5.0000000000,36.0000000000,186.0000000000,328.0000000000,517.0000000000
1717675033287,56.0000000000,5.0000000000,36.0000000000,185.0000000000,327.0000000000,513.0000000000
1717675033287,56.0000000000,5.0000000000,36.0000000000,184.0000000000,324.0000000000,508.0000000000
1717675033287,55.0000000000,7.0000000000,35.0000000000,183.0000000000,322.0000000000,505.0000000000
1717675033287,55.0000000000,7.0000000000,35.0000000000,182.0000000000,319.0000000000,500.0000000000
1717675033287,54.0000000000,7.0000000000,35.0000000000,180.0000000000,318.0000000000,497.0000000000
1717675033287,54.0000000000,7.0000000000,35.0000000000,179.0000000000,316.0000000000,492.0000000000
1717675033287,54.0000000000,7.0000000000,35.0000000000,179.0000000000,313.0000000000,487.0000000000
1717675033287,54.0000000000,7.0000000000,35.0000000000,183.0000000000,312.0000000000,484.0000000000
1717675033287,53.0000000000,7.0000000000,35.0000000000,224.0000000000,309.0000000000,480.0000000000
1717675033287,52.0000000000,7.0000000000,34.0000000000,222.0000000000,307.0000000000,478.0000000000
1717675033288,52.0000000000,6.0000000000,34.0000000000,220.0000000000,305.0000000000,473.0000000000
1717675033288,51.0000000000,6.0000000000,34.0000000000,219.0000000000,303.0000000000,470.0000000000
1717675033288,52.0000000000,7.0000000000,33.0000000000,217.0000000000,301.0000000000,467.0000000000
1717675033302,51.0000000000,6.0000000000,33.0000000000,216.0000000000,300.0000000000,463.0000000000
1717675033302,51.0000000000,6.0000000000,33.0000000000,215.0000000000,297.0000000000,460.0000000000
1717675033303,51.0000000000,6.0000000000,34.0000000000,212.0000000000,295.0000000000,455.0000000000
1717675033303,51.0000000000,6.0000000000,34.0000000000,211.0000000000,294.0000000000,452.0000000000
1717675033303,51.0000000000,6.0000000000,34.0000000000,210.0000000000,291.0000000000,449.0000000000
1717675033303,50.0000000000,6.0000000000,34.0000000000,208.0000000000,290.0000000000,446.0000000000
1717675033303,50.0000000000,6.0000000000,33.0000000000,207.0000000000,287.0000000000,444.0000000000
1717675033318,49.0000000000,6.0000000000,33.0000000000,265.0000000000,287.0000000000,440.0000000000
1717675033318,49.0000000000,6.0000000000,33.0000000000,262.0000000000,285.0000000000,436.0000000000
1717675033318,49.0000000000,6.0000000000,32.0000000000,260.0000000000,284.0000000000,433.0000000000
1717675033318,48.0000000000,6.0000000000,31.0000000000,258.0000000000,282.0000000000,430.0000000000
1717675033318,48.0000000000,6.0000000000,31.0000000000,255.0000000000,280.0000000000,428.0000000000
1717675033319,48.0000000000,6.0000000000,31.0000000000,255.0000000000,279.0000000000,423.0000000000
1717675033319,48.0000000000,6.0000000000,31.0000000000,254.0000000000,277.0000000000,453.0000000000
1717675033319,47.0000000000,6.0000000000,32.0000000000,251.0000000000,275.0000000000,448.0000000000
1717675033319,48.0000000000,5.0000000000,31.0000000000,249.0000000000,273.0000000000,444.0000000000
1717675033333,47.0000000000,6.0000000000,31.0000000000,248.0000000000,272.0000000000,441.0000000000
1717675033334,47.0000000000,5.0000000000,31.0000000000,246.0000000000,271.0000000000,437.0000000000
1717675033334,46.0000000000,6.0000000000,31.0000000000,245.0000000000,269.0000000000,519.0000000000
1717675033334,46.0000000000,6.0000000000,31.0000000000,304.0000000000,268.0000000000,514.0000000000
1717675033334,46.0000000000,5.0000000000,31.0000000000,301.0000000000,267.0000000000,508.0000000000
1717675033334,46.0000000000,4.0000000000,31.0000000000,299.0000000000,265.0000000000,505.0000000000
1717675033335,45.0000000000,6.0000000000,31.0000000000,295.0000000000,263.0000000000,500.0000000000
1717675033335,46.0000000000,5.0000000000,31.0000000000,294.0000000000,263.0000000000,496.0000000000
1717675033335,44.0000000000,4.0000000000,30.0000000000,291.0000000000,263.0000000000,492.0000000000
1717675033357,44.0000000000,5.0000000000,30.0000000000,289.0000000000,261.0000000000,488.0000000000
1717675033358,44.0000000000,5.0000000000,30.0000000000,287.0000000000,259.0000000000,483.0000000000
1717675033358,44.0000000000,5.0000000000,29.0000000000,286.0000000000,258.0000000000,480.0000000000
1717675033358,44.0000000000,5.0000000000,29.0000000000,284.0000000000,255.0000000000,476.0000000000
1717675033358,43.0000000000,5.0000000000,29.0000000000,282.0000000000,255.0000000000,539.0000000000
1717675033359,43.0000000000,5.0000000000,29.0000000000,280.0000000000,254.0000000000,588.0000000000
1717675033359,43.0000000000,4.0000000000,29.0000000000,278.0000000000,252.0000000000,681.0000000000
1717675033359,43.0000000000,5.0000000000,29.0000000000,275.0000000000,252.0000000000,671.0000000000
1717675033359,43.0000000000,5.0000000000,28.0000000000,275.0000000000,249.0000000000,666.0000000000
1717675033359,42.0000000000,5.0000000000,28.0000000000,272.0000000000,248.0000000000,659.0000000000
1717675033359,42.0000000000,5.0000000000,28.0000000000,271.0000000000,273.0000000000,652.0000000000
1717675033359,42.0000000000,4.0000000000,28.0000000000,269.0000000000,271.0000000000,645.0000000000
1717675033359,41.0000000000,4.0000000000,28.0000000000,267.0000000000,268.0000000000,638.0000000000
1717675033360,41.0000000000,4.0000000000,28.0000000000,265.0000000000,267.0000000000,632.0000000000
1717675033375,40.0000000000,5.0000000000,28.0000000000,263.0000000000,265.0000000000,626.0000000000
1717675033376,41.0000000000,4.0000000000,28.0000000000,263.0000000000,263.0000000000,621.0000000000
1717675033376,39.0000000000,4.0000000000,28.0000000000,260.0000000000,262.0000000000,614.0000000000
1717675033376,39.0000000000,4.0000000000,27.0000000000,259.0000000000,259.0000000000,609.0000000000
1717675033376,39.0000000000,4.0000000000,27.0000000000,257.0000000000,258.0000000000,604.0000000000
1717675033376,39.0000000000,4.0000000000,27.0000000000,255.0000000000,350.0000000000,598.0000000000
1717675033376,39.0000000000,4.0000000000,27.0000000000,254.0000000000,345.0000000000,593.0000000000
1717675033376,39.0000000000,4.0000000000,26.0000000000,252.0000000000,343.0000000000,588.0000000000
1717675033376,39.0000000000,4.0000000000,27.0000000000,252.0000000000,340.0000000000,583.0000000000
1717675033389,39.0000000000,4.0000000000,25.0000000000,249.0000000000,337.0000000000,577.0000000000
1717675033391,39.0000000000,3.0000000000,26.0000000000,248.0000000000,335.0000000000,572.0000000000
1717675033391,39.0000000000,4.0000000000,25.0000000000,247.0000000000,332.0000000000,568.0000000000
1717675033391,39.0000000000,4.0000000000,25.0000000000,244.0000000000,330.0000000000,563.0000000000
1717675033391,38.0000000000,4.0000000000,25.0000000000,243.0000000000,327.0000000000,559.0000000000
1717675033391,38.0000000000,4.0000000000,25.0000000000,241.0000000000,326.0000000000,553.0000000000
1717675033391,38.0000000000,4.0000000000,25.0000000000,240.0000000000,323.0000000000,548.0000000000
1717675033392,38.0000000000,3.0000000000,24.0000000000,239.0000000000,321.0000000000,543.0000000000
1717675033392,37.0000000000,4.0000000000,25.0000000000,238.0000000000,319.0000000000,540.0000000000
1717675033408,37.0000000000,5.0000000000,31.0000000000,236.0000000000,317.0000000000,536.0000000000
1717675033408,36.0000000000,5.0000000000,31.0000000000,327.0000000000,315.0000000000,531.0000000000
1717675033408,36.0000000000,5.0000000000,31.0000000000,322.0000000000,312.0000000000,527.0000000000
1717675033408,36.0000000000,5.0000000000,31.0000000000,319.0000000000,311.0000000000,523.0000000000
1717675033409,35.0000000000,5.0000000000,31.0000000000,317.0000000000,308.0000000000,518.0000000000
1717675033409,35.0000000000,5.0000000000,31.0000000000,315.0000000000,306.0000000000,515.0000000000
1717675033409,35.0000000000,5.0000000000,31.0000000000,312.0000000000,305.0000000000,616.0000000000
1717675033409,36.0000000000,5.0000000000,30.0000000000,311.0000000000,303.0000000000,611.0000000000
1717675033409,35.0000000000,5.0000000000,30.0000000000,308.0000000000,300.0000000000,604.0000000000
1717675033423,35.0000000000,4.0000000000,30.0000000000,306.0000000000,299.0000000000,598.0000000000
1717675033424,35.0000000000,5.0000000000,30.0000000000,304.0000000000,297.0000000000,731.0000000000
1717675033424,35.0000000000,5.0000000000,30.0000000000,302.0000000000,295.0000000000,767.0000000000
1717675033424,35.0000000000,9.0000000000,41.0000000000,300.0000000000,293.0000000000,758.0000000000
1717675033424,34.0000000000,9.0000000000,41.0000000000,297.0000000000,291.0000000000,748.0000000000
1717675033424,34.0000000000,9.0000000000,41.0000000000,295.0000000000,289.0000000000,739.0000000000
1717675033424,34.0000000000,9.0000000000,40.0000000000,294.0000000000,287.0000000000,732.0000000000
1717675033424,33.0000000000,7.0000000000,39.0000000000,291.0000000000,286.0000000000,723.0000000000
1717675033425,34.0000000000,7.0000000000,39.0000000000,289.0000000000,284.0000000000,716.0000000000
1717675033443,33.0000000000,8.0000000000,39.0000000000,287.0000000000,283.0000000000,707.0000000000
1717675033445,33.0000000000,7.0000000000,39.0000000000,286.0000000000,280.0000000000,702.0000000000
1717675033445,33.0000000000,7.0000000000,39.0000000000,284.0000000000,279.0000000000,694.0000000000
1717675033445,33.0000000000,7.0000000000,39.0000000000,282.0000000000,278.0000000000,760.0000000000
1717675033446,33.0000000000,39.0000000000,70.0000000000,280.0000000000,275.0000000000,750.0000000000
1717675033446,33.0000000000,39.0000000000,70.0000000000,279.0000000000,273.0000000000,740.0000000000
1717675033447,32.0000000000,39.0000000000,68.0000000000,276.0000000000,272.0000000000,731.0000000000
1717675033447,32.0000000000,38.0000000000,67.0000000000,275.0000000000,271.0000000000,722.0000000000
1717675033447,31.0000000000,38.0000000000,67.0000000000,273.0000000000,268.0000000000,716.0000000000
1717675033447,31.0000000000,38.0000000000,67.0000000000,295.0000000000,267.0000000000,707.0000000000
1717675033447,31.0000000000,37.0000000000,66.0000000000,308.0000000000,265.0000000000,699.0000000000
1717675033447,31.0000000000,37.0000000000,66.0000000000,305.0000000000,263.0000000000,691.0000000000
1717675033447,31.0000000000,36.0000000000,65.0000000000,303.0000000000,262.0000000000,685.0000000000
1717675033448,31.0000000000,36.0000000000,65.0000000000,301.0000000000,259.0000000000,678.0000000000
1717675033463,31.0000000000,35.0000000000,64.0000000000,299.0000000000,259.0000000000,670.0000000000
1717675033464,31.0000000000,36.0000000000,63.0000000000,296.0000000000,257.0000000000,664.0000000000
1717675033464,31.0000000000,35.0000000000,63.0000000000,295.0000000000,255.0000000000,655.0000000000
1717675033464,31.0000000000,35.0000000000,63.0000000000,292.0000000000,254.0000000000,651.0000000000
1717675033464,30.0000000000,35.0000000000,63.0000000000,290.0000000000,252.0000000000,644.0000000000
1717675033465,30.0000000000,35.0000000000,63.0000000000,287.0000000000,252.0000000000,638.0000000000
1717675033465,30.0000000000,35.0000000000,62.0000000000,286.0000000000,249.0000000000,632.0000000000
1717675033465,30.0000000000,34.0000000000,62.0000000000,284.0000000000,274.0000000000,627.0000000000
1717675033485,30.0000000000,33.0000000000,62.0000000000,282.0000000000,271.0000000000,620.0000000000
1717675033486,30.0000000000,34.0000000000,61.0000000000,280.0000000000,270.0000000000,614.0000000000
1717675033487,30.0000000000,34.0000000000,60.0000000000,278.0000000000,268.0000000000,608.0000000000
1717675033487,29.0000000000,33.0000000000,60.0000000000,276.0000000000,265.0000000000,604.0000000000
1717675033487,29.0000000000,33.0000000000,60.0000000000,275.0000000000,263.0000000000,598.0000000000
1717675033487,29.0000000000,32.0000000000,60.0000000000,273.0000000000,262.0000000000,591.0000000000
1717675033487,29.0000000000,32.0000000000,59.0000000000,271.0000000000,260.0000000000,585.0000000000
1717675033487,29.0000000000,32.0000000000,59.0000000000,269.0000000000,259.0000000000,582.0000000000
1717675033487,28.0000000000,31.0000000000,58.0000000000,268.0000000000,255.0000000000,575.0000000000
1717675033487,28.0000000000,31.0000000000,57.0000000000,265.0000000000,255.0000000000,571.0000000000
1717675033488,28.0000000000,31.0000000000,57.0000000000,263.0000000000,254.0000000000,566.0000000000
1717675033503,28.0000000000,31.0000000000,57.0000000000,262.0000000000,252.0000000000,561.0000000000
1717675033504,28.0000000000,31.0000000000,56.0000000000,260.0000000000,250.0000000000,557.0000000000
1717675033505,27.0000000000,31.0000000000,56.0000000000,259.0000000000,248.0000000000,551.0000000000
1717675033505,28.0000000000,31.0000000000,56.0000000000,257.0000000000,248.0000000000,547.0000000000
1717675033505,28.0000000000,31.0000000000,56.0000000000,255.0000000000,246.0000000000,543.0000000000
1717675033505,27.0000000000,30.0000000000,56.0000000000,254.0000000000,244.0000000000,538.0000000000
1717675033506,27.0000000000,30.0000000000,55.0000000000,252.0000000000,243.0000000000,533.0000000000
1717675033506,27.0000000000,30.0000000000,55.0000000000,251.0000000000,241.0000000000,529.0000000000
1717675033506,26.0000000000,30.0000000000,54.0000000000,249.0000000000,240.0000000000,526.0000000000
1717675033507,62.0000000000,29.0000000000,54.0000000000,248.0000000000,238.0000000000,520.0000000000
1717675033507,60.0000000000,29.0000000000,54.0000000000,246.0000000000,237.0000000000,516.0000000000
1717675033529,60.0000000000,29.0000000000,53.0000000000,244.0000000000,236.0000000000,512.0000000000
1717675033530,59.0000000000,29.0000000000,53.0000000000,243.0000000000,235.0000000000,508.0000000000
1717675033530,59.0000000000,29.0000000000,53.0000000000,241.0000000000,233.0000000000,505.0000000000
1717675033530,59.0000000000,29.0000000000,52.0000000000,240.0000000000,231.0000000000,500.0000000000
1717675033530,57.0000000000,28.0000000000,52.0000000000,239.0000000000,231.0000000000,496.0000000000
1717675033530,57.0000000000,28.0000000000,52.0000000000,236.0000000000,230.0000000000,492.0000000000
1717675033530,57.0000000000,28.0000000000,51.0000000000,236.0000000000,228.0000000000,489.0000000000
1717675033530,56.0000000000,28.0000000000,51.0000000000,234.0000000000,227.0000000000,485.0000000000
1717675033531,76.0000000000,28.0000000000,51.0000000000,231.0000000000,226.0000000000,481.0000000000
1717675033531,100.0000000000,27.0000000000,51.0000000000,231.0000000000,224.0000000000,478.0000000000
1717675033531,99.0000000000,28.0000000000,50.0000000000,230.0000000000,223.0000000000,473.0000000000
1717675033531,99.0000000000,27.0000000000,50.0000000000,228.0000000000,222.0000000000,471.0000000000
1717675033531,98.0000000000,27.0000000000,49.0000000000,227.0000000000,220.0000000000,467.0000000000
1717675033547,97.0000000000,27.0000000000,49.0000000000,225.0000000000,220.0000000000,463.0000000000
1717675033548,96.0000000000,27.0000000000,49.0000000000,224.0000000000,218.0000000000,460.0000000000
1717675033548,96.0000000000,27.0000000000,49.0000000000,223.0000000000,217.0000000000,457.0000000000
1717675033549,95.0000000000,26.0000000000,49.0000000000,222.0000000000,216.0000000000,454.0000000000
1717675033549,95.0000000000,26.0000000000,48.0000000000,220.0000000000,215.0000000000,450.0000000000
1717675033549,94.0000000000,26.0000000000,48.0000000000,219.0000000000,214.0000000000,448.0000000000
1717675033549,93.0000000000,26.0000000000,48.0000000000,217.0000000000,241.0000000000,444.0000000000
1717675033550,92.0000000000,25.0000000000,47.0000000000,216.0000000000,240.0000000000,440.0000000000
1717675033550,92.0000000000,25.0000000000,47.0000000000,215.0000000000,239.0000000000,438.0000000000
1717675033550,92.0000000000,25.0000000000,47.0000000000,214.0000000000,241.0000000000,435.0000000000
1717675033550,91.0000000000,25.0000000000,47.0000000000,212.0000000000,302.0000000000,432.0000000000
1717675033569,90.0000000000,25.0000000000,46.0000000000,211.0000000000,299.0000000000,428.0000000000
1717675033570,89.0000000000,25.0000000000,46.0000000000,210.0000000000,297.0000000000,425.0000000000
1717675033570,88.0000000000,24.0000000000,45.0000000000,209.0000000000,295.0000000000,422.0000000000
1717675033571,88.0000000000,24.0000000000,46.0000000000,207.0000000000,292.0000000000,419.0000000000
1717675033571,88.0000000000,24.0000000000,45.0000000000,207.0000000000,290.0000000000,416.0000000000
1717675033571,87.0000000000,24.0000000000,45.0000000000,206.0000000000,287.0000000000,414.0000000000
1717675033571,87.0000000000,24.0000000000,45.0000000000,204.0000000000,286.0000000000,411.0000000000
1717675033571,86.0000000000,24.0000000000,44.0000000000,204.0000000000,284.0000000000,408.0000000000
1717675033571,85.0000000000,24.0000000000,44.0000000000,201.0000000000,281.0000000000,406.0000000000
1717675033571,86.0000000000,24.0000000000,44.0000000000,200.0000000000,280.0000000000,403.0000000000
1717675033571,84.0000000000,24.0000000000,44.0000000000,199.0000000000,279.0000000000,399.0000000000
1717675033588,84.0000000000,23.0000000000,43.0000000000,198.0000000000,276.0000000000,398.0000000000
1717675033590,83.0000000000,23.0000000000,43.0000000000,197.0000000000,274.0000000000,395.0000000000
1717675033590,82.0000000000,23.0000000000,43.0000000000,196.0000000000,318.0000000000,391.0000000000
1717675033590,83.0000000000,22.0000000000,43.0000000000,195.0000000000,316.0000000000,388.0000000000
1717675033590,81.0000000000,23.0000000000,43.0000000000,193.0000000000,312.0000000000,386.0000000000
1717675033590,81.0000000000,22.0000000000,41.0000000000,193.0000000000,310.0000000000,384.0000000000
1717675033591,80.0000000000,22.0000000000,41.0000000000,192.0000000000,308.0000000000,440.0000000000
1717675033591,79.0000000000,22.0000000000,41.0000000000,191.0000000000,306.0000000000,502.0000000000
1717675033591,79.0000000000,22.0000000000,41.0000000000,190.0000000000,304.0000000000,496.0000000000
1717675033591,79.0000000000,22.0000000000,41.0000000000,188.0000000000,302.0000000000,492.0000000000
1717675033591,79.0000000000,21.0000000000,41.0000000000,188.0000000000,300.0000000000,487.0000000000
1717675033608,78.0000000000,23.0000000000,40.0000000000,187.0000000000,297.0000000000,483.0000000000
1717675033609,78.0000000000,22.0000000000,40.0000000000,185.0000000000,295.0000000000,479.0000000000
1717675033609,78.0000000000,22.0000000000,48.0000000000,184.0000000000,293.0000000000,476.0000000000
1717675033609,77.0000000000,22.0000000000,48.0000000000,184.0000000000,291.0000000000,471.0000000000
1717675033609,76.0000000000,22.0000000000,47.0000000000,182.0000000000,289.0000000000,540.0000000000
1717675033609,120.0000000000,22.0000000000,47.0000000000,181.0000000000,287.0000000000,533.0000000000
1717675033609,118.0000000000,22.0000000000,47.0000000000,179.0000000000,285.0000000000,527.0000000000
1717675033609,115.0000000000,22.0000000000,46.0000000000,179.0000000000,283.0000000000,522.0000000000
1717675033609,115.0000000000,21.0000000000,46.0000000000,177.0000000000,281.0000000000,518.0000000000
1717675033623,114.0000000000,20.0000000000,46.0000000000,176.0000000000,279.0000000000,627.0000000000
1717675033624,113.0000000000,24.0000000000,45.0000000000,176.0000000000,277.0000000000,651.0000000000
1717675033624,112.0000000000,24.0000000000,45.0000000000,175.0000000000,275.0000000000,643.0000000000
1717675033624,111.0000000000,24.0000000000,44.0000000000,174.0000000000,273.0000000000,694.0000000000
1717675033625,111.0000000000,24.0000000000,44.0000000000,172.0000000000,271.0000000000,708.0000000000
1717675033625,110.0000000000,24.0000000000,44.0000000000,172.0000000000,269.0000000000,700.0000000000
1717675033625,109.0000000000,24.0000000000,44.0000000000,171.0000000000,268.0000000000,691.0000000000
1717675033625,108.0000000000,24.0000000000,44.0000000000,169.0000000000,265.0000000000,683.0000000000
1717675033638,108.0000000000,23.0000000000,43.0000000000,169.0000000000,263.0000000000,675.0000000000
1717675033639,107.0000000000,23.0000000000,43.0000000000,167.0000000000,263.0000000000,667.0000000000
1717675033639,105.0000000000,23.0000000000,42.0000000000,167.0000000000,260.0000000000,660.0000000000
1717675033639,105.0000000000,23.0000000000,42.0000000000,166.0000000000,259.0000000000,653.0000000000
1717675033640,105.0000000000,23.0000000000,41.0000000000,165.0000000000,257.0000000000,646.0000000000
1717675033640,103.0000000000,22.0000000000,41.0000000000,163.0000000000,255.0000000000,639.0000000000
1717675033640,103.0000000000,22.0000000000,41.0000000000,163.0000000000,254.0000000000,632.0000000000
1717675033640,103.0000000000,21.0000000000,41.0000000000,162.0000000000,339.0000000000,627.0000000000
1717675033640,102.0000000000,22.0000000000,40.0000000000,161.0000000000,336.0000000000,621.0000000000
1717675033655,102.0000000000,22.0000000000,39.0000000000,191.0000000000,333.0000000000,614.0000000000
1717675033656,101.0000000000,21.0000000000,39.0000000000,189.0000000000,331.0000000000,608.0000000000
1717675033656,100.0000000000,20.0000000000,39.0000000000,188.0000000000,327.0000000000,718.0000000000
1717675033656,99.0000000000,25.0000000000,41.0000000000,187.0000000000,326.0000000000,707.0000000000
1717675033656,99.0000000000,25.0000000000,41.0000000000,184.0000000000,323.0000000000,699.0000000000
1717675033656,97.0000000000,25.0000000000,41.0000000000,184.0000000000,321.0000000000,692.0000000000
1717675033657,97.0000000000,24.0000000000,41.0000000000,183.0000000000,319.0000000000,684.0000000000
1717675033657,97.0000000000,24.0000000000,40.0000000000,181.0000000000,316.0000000000,675.0000000000
1717675033672,96.0000000000,24.0000000000,39.0000000000,179.0000000000,314.0000000000,668.0000000000
1717675033674,96.0000000000,24.0000000000,39.0000000000,179.0000000000,312.0000000000,779.0000000000
1717675033674,179.0000000000,24.0000000000,39.0000000000,177.0000000000,310.0000000000,766.0000000000
1717675033674,177.0000000000,24.0000000000,39.0000000000,176.0000000000,307.0000000000,755.0000000000
1717675033674,176.0000000000,24.0000000000,39.0000000000,175.0000000000,305.0000000000,746.0000000000
1717675033674,174.0000000000,23.0000000000,39.0000000000,174.0000000000,303.0000000000,737.0000000000
1717675033674,173.0000000000,23.0000000000,39.0000000000,172.0000000000,300.0000000000,728.0000000000
1717675033674,172.0000000000,23.0000000000,39.0000000000,172.0000000000,298.0000000000,719.0000000000
1717675033674,171.0000000000,23.0000000000,38.0000000000,171.0000000000,295.0000000000,711.0000000000
1717675033687,169.0000000000,23.0000000000,38.0000000000,169.0000000000,295.0000000000,703.0000000000
1717675033688,167.0000000000,23.0000000000,38.0000000000,167.0000000000,292.0000000000,695.0000000000
1717675033688,166.0000000000,22.0000000000,37.0000000000,167.0000000000,291.0000000000,687.0000000000
1717675033688,167.0000000000,22.0000000000,38.0000000000,167.0000000000,287.0000000000,679.0000000000
1717675033688,167.0000000000,22.0000000000,37.0000000000,166.0000000000,286.0000000000,671.0000000000
1717675033689,165.0000000000,22.0000000000,37.0000000000,171.0000000000,284.0000000000,664.0000000000
1717675033689,163.0000000000,21.0000000000,36.0000000000,169.0000000000,283.0000000000,658.0000000000
1717675033689,163.0000000000,21.0000000000,36.0000000000,167.0000000000,280.0000000000,653.0000000000
1717675033703,162.0000000000,22.0000000000,36.0000000000,167.0000000000,279.0000000000,646.0000000000
1717675033704,161.0000000000,21.0000000000,35.0000000000,166.0000000000,277.0000000000,639.0000000000
1717675033704,159.0000000000,21.0000000000,35.0000000000,165.0000000000,275.0000000000,632.0000000000
1717675033704,159.0000000000,21.0000000000,35.0000000000,164.0000000000,272.0000000000,626.0000000000
1717675033705,157.0000000000,20.0000000000,35.0000000000,163.0000000000,271.0000000000,620.0000000000
1717675033705,156.0000000000,20.0000000000,35.0000000000,162.0000000000,269.0000000000,614.0000000000
1717675033705,155.0000000000,20.0000000000,35.0000000000,160.0000000000,268.0000000000,608.0000000000
1717675033705,155.0000000000,20.0000000000,34.0000000000,159.0000000000,265.0000000000,601.0000000000
1717675033724,152.0000000000,19.0000000000,34.0000000000,158.0000000000,263.0000000000,596.0000000000
1717675033725,152.0000000000,19.0000000000,34.0000000000,158.0000000000,263.0000000000,590.0000000000
1717675033725,151.0000000000,19.0000000000,34.0000000000,157.0000000000,260.0000000000,584.0000000000
1717675033725,151.0000000000,20.0000000000,34.0000000000,156.0000000000,259.0000000000,579.0000000000
1717675033725,149.0000000000,19.0000000000,33.0000000000,155.0000000000,257.0000000000,574.0000000000
1717675033725,148.0000000000,19.0000000000,33.0000000000,155.0000000000,255.0000000000,569.0000000000
1717675033725,147.0000000000,19.0000000000,33.0000000000,153.0000000000,254.0000000000,564.0000000000
1717675033726,146.0000000000,19.0000000000,33.0000000000,152.0000000000,252.0000000000,559.0000000000
1717675033726,145.0000000000,19.0000000000,32.0000000000,152.0000000000,251.0000000000,553.0000000000
1717675033726,144.0000000000,19.0000000000,32.0000000000,151.0000000000,249.0000000000,549.0000000000
1717675033726,143.0000000000,19.0000000000,31.0000000000,150.0000000000,248.0000000000,543.0000000000
1717675033748,143.0000000000,18.0000000000,31.0000000000,176.0000000000,246.0000000000,540.0000000000
1717675033751,141.0000000000,18.0000000000,31.0000000000,174.0000000000,245.0000000000,535.0000000000
1717675033751,141.0000000000,18.0000000000,31.0000000000,172.0000000000,243.0000000000,530.0000000000
1717675033751,140.0000000000,18.0000000000,31.0000000000,171.0000000000,242.0000000000,526.0000000000
1717675033752,139.0000000000,18.0000000000,31.0000000000,169.0000000000,240.0000000000,520.0000000000
1717675033753,138.0000000000,18.0000000000,31.0000000000,168.0000000000,239.0000000000,516.0000000000
1717675033753,140.0000000000,18.0000000000,31.0000000000,167.0000000000,237.0000000000,512.0000000000
1717675033754,151.0000000000,17.0000000000,31.0000000000,167.0000000000,236.0000000000,507.0000000000
1717675033754,150.0000000000,17.0000000000,31.0000000000,166.0000000000,233.0000000000,504.0000000000
1717675033754,148.0000000000,17.0000000000,30.0000000000,164.0000000000,232.0000000000,500.0000000000
1717675033755,147.0000000000,17.0000000000,30.0000000000,163.0000000000,231.0000000000,496.0000000000
1717675033756,146.0000000000,17.0000000000,30.0000000000,162.0000000000,230.0000000000,492.0000000000
1717675033757,145.0000000000,17.0000000000,30.0000000000,161.0000000000,228.0000000000,514.0000000000
1717675033758,144.0000000000,31.0000000000,87.0000000000,159.0000000000,227.0000000000,652.0000000000
1717675033759,143.0000000000,33.0000000000,110.0000000000,159.0000000000,225.0000000000,644.0000000000
1717675033759,143.0000000000,32.0000000000,109.0000000000,158.0000000000,224.0000000000,636.0000000000
1717675033774,141.0000000000,32.0000000000,108.0000000000,156.0000000000,223.0000000000,630.0000000000
1717675033775,141.0000000000,31.0000000000,108.0000000000,155.0000000000,222.0000000000,620.0000000000
1717675033775,140.0000000000,31.0000000000,107.0000000000,154.0000000000,220.0000000000,614.0000000000
1717675033775,139.0000000000,31.0000000000,105.0000000000,153.0000000000,219.0000000000,608.0000000000
1717675033775,137.0000000000,31.0000000000,104.0000000000,152.0000000000,217.0000000000,601.0000000000
1717675033775,137.0000000000,31.0000000000,103.0000000000,152.0000000000,216.0000000000,595.0000000000
1717675033775,135.0000000000,31.0000000000,103.0000000000,150.0000000000,215.0000000000,589.0000000000
1717675033775,135.0000000000,30.0000000000,102.0000000000,149.0000000000,214.0000000000,583.0000000000
1717675033791,134.0000000000,30.0000000000,102.0000000000,148.0000000000,212.0000000000,577.0000000000
1717675033792,133.0000000000,30.0000000000,101.0000000000,147.0000000000,211.0000000000,572.0000000000
1717675033792,132.0000000000,30.0000000000,100.0000000000,146.0000000000,209.0000000000,566.0000000000
1717675033793,131.0000000000,30.0000000000,99.0000000000,145.0000000000,208.0000000000,560.0000000000
1717675033793,131.0000000000,29.0000000000,99.0000000000,145.0000000000,207.0000000000,556.0000000000
1717675033793,129.0000000000,28.0000000000,98.0000000000,143.0000000000,206.0000000000,550.0000000000
1717675033793,129.0000000000,28.0000000000,97.0000000000,143.0000000000,204.0000000000,545.0000000000
1717675033794,127.0000000000,28.0000000000,97.0000000000,143.0000000000,204.0000000000,540.0000000000
1717675033794,127.0000000000,28.0000000000,96.0000000000,142.0000000000,203.0000000000,535.0000000000
1717675033822,127.0000000000,28.0000000000,96.0000000000,141.0000000000,201.0000000000,530.0000000000
1717675033822,126.0000000000,28.0000000000,96.0000000000,140.0000000000,199.0000000000,525.0000000000
1717675033822,125.0000000000,28.0000000000,94.0000000000,139.0000000000,199.0000000000,519.0000000000
1717675033822,124.0000000000,28.0000000000,94.0000000000,138.0000000000,198.0000000000,515.0000000000
1717675033823,124.0000000000,27.0000000000,94.0000000000,137.0000000000,198.0000000000,511.0000000000
1717675033823,146.0000000000,27.0000000000,93.0000000000,135.0000000000,196.0000000000,507.0000000000
1717675033823,144.0000000000,27.0000000000,92.0000000000,135.0000000000,195.0000000000,503.0000000000
1717675033823,143.0000000000,27.0000000000,92.0000000000,135.0000000000,194.0000000000,499.0000000000
1717675033823,143.0000000000,27.0000000000,91.0000000000,135.0000000000,198.0000000000,495.0000000000
1717675033823,141.0000000000,26.0000000000,90.0000000000,134.0000000000,196.0000000000,491.0000000000
1717675033823,140.0000000000,25.0000000000,89.0000000000,133.0000000000,195.0000000000,486.0000000000
1717675033823,140.0000000000,25.0000000000,89.0000000000,132.0000000000,193.0000000000,483.0000000000
1717675033823,139.0000000000,25.0000000000,88.0000000000,131.0000000000,192.0000000000,479.0000000000
1717675033823,137.0000000000,25.0000000000,88.0000000000,131.0000000000,191.0000000000,475.0000000000
1717675033837,135.0000000000,25.0000000000,88.0000000000,130.0000000000,190.0000000000,471.0000000000
1717675033838,135.0000000000,25.0000000000,88.0000000000,129.0000000000,190.0000000000,467.0000000000
1717675033838,135.0000000000,25.0000000000,86.0000000000,128.0000000000,188.0000000000,463.0000000000
1717675033838,134.0000000000,25.0000000000,87.0000000000,127.0000000000,191.0000000000,460.0000000000
1717675033838,132.0000000000,24.0000000000,86.0000000000,127.0000000000,191.0000000000,455.0000000000
1717675033838,132.0000000000,24.0000000000,85.0000000000,127.0000000000,191.0000000000,627.0000000000
1717675033838,131.0000000000,28.0000000000,85.0000000000,126.0000000000,188.0000000000,665.0000000000
1717675033838,130.0000000000,28.0000000000,84.0000000000,125.0000000000,187.0000000000,659.0000000000
1717675033838,129.0000000000,28.0000000000,83.0000000000,124.0000000000,185.0000000000,652.0000000000
1717675033853,128.0000000000,28.0000000000,83.0000000000,124.0000000000,185.0000000000,643.0000000000
1717675033854,127.0000000000,28.0000000000,83.0000000000,123.0000000000,184.0000000000,745.0000000000
1717675033854,252.0000000000,28.0000000000,82.0000000000,123.0000000000,184.0000000000,734.0000000000
1717675033854,248.0000000000,28.0000000000,82.0000000000,121.0000000000,183.0000000000,725.0000000000
1717675033854,245.0000000000,27.0000000000,81.0000000000,121.0000000000,181.0000000000,716.0000000000
1717675033855,243.0000000000,27.0000000000,81.0000000000,120.0000000000,180.0000000000,707.0000000000
1717675033855,241.0000000000,27.0000000000,79.0000000000,120.0000000000,179.0000000000,699.0000000000
1717675033855,239.0000000000,27.0000000000,79.0000000000,119.0000000000,178.0000000000,691.0000000000
1717675033875,238.0000000000,27.0000000000,79.0000000000,118.0000000000,177.0000000000,684.0000000000
1717675033876,236.0000000000,26.0000000000,79.0000000000,117.0000000000,176.0000000000,675.0000000000
1717675033876,233.0000000000,26.0000000000,79.0000000000,116.0000000000,176.0000000000,668.0000000000
1717675033876,231.0000000000,25.0000000000,78.0000000000,116.0000000000,175.0000000000,660.0000000000
1717675033876,231.0000000000,25.0000000000,78.0000000000,115.0000000000,174.0000000000,655.0000000000
1717675033876,228.0000000000,25.0000000000,76.0000000000,115.0000000000,172.0000000000,648.0000000000
1717675033876,227.0000000000,25.0000000000,76.0000000000,114.0000000000,172.0000000000,643.0000000000
1717675033876,225.0000000000,25.0000000000,76.0000000000,217.0000000000,171.0000000000,636.0000000000
1717675033876,224.0000000000,25.0000000000,76.0000000000,252.0000000000,169.0000000000,628.0000000000
1717675033876,222.0000000000,24.0000000000,76.0000000000,249.0000000000,169.0000000000,622.0000000000
1717675033877,220.0000000000,24.0000000000,74.0000000000,248.0000000000,167.0000000000,615.0000000000
1717675033890,219.0000000000,24.0000000000,73.0000000000,244.0000000000,167.0000000000,609.0000000000
1717675033892,217.0000000000,24.0000000000,73.0000000000,243.0000000000,167.0000000000,604.0000000000
1717675033892,216.0000000000,24.0000000000,73.0000000000,241.0000000000,166.0000000000,598.0000000000
1717675033892,215.0000000000,24.0000000000,72.0000000000,239.0000000000,165.0000000000,591.0000000000
1717675033892,214.0000000000,24.0000000000,71.0000000000,237.0000000000,164.0000000000,586.0000000000
1717675033892,211.0000000000,24.0000000000,71.0000000000,235.0000000000,163.0000000000,580.0000000000
1717675033893,211.0000000000,24.0000000000,71.0000000000,233.0000000000,162.0000000000,575.0000000000
1717675033893,209.0000000000,23.0000000000,71.0000000000,231.0000000000,161.0000000000,571.0000000000
1717675033912,207.0000000000,23.0000000000,71.0000000000,231.0000000000,161.0000000000,566.0000000000
1717675033912,206.0000000000,22.0000000000,70.0000000000,228.0000000000,159.0000000000,560.0000000000
1717675033913,205.0000000000,23.0000000000,70.0000000000,227.0000000000,159.0000000000,555.0000000000
1717675033913,203.0000000000,23.0000000000,70.0000000000,226.0000000000,158.0000000000,550.0000000000
1717675033913,201.0000000000,22.0000000000,69.0000000000,224.0000000000,156.0000000000,545.0000000000
1717675033913,201.0000000000,22.0000000000,68.0000000000,222.0000000000,156.0000000000,551.0000000000
1717675033914,227.0000000000,22.0000000000,67.0000000000,221.0000000000,156.0000000000,782.0000000000
1717675033914,225.0000000000,22.0000000000,67.0000000000,220.0000000000,155.0000000000,779.0000000000
1717675033914,223.0000000000,22.0000000000,67.0000000000,217.0000000000,153.0000000000,768.0000000000
1717675033914,222.0000000000,22.0000000000,67.0000000000,216.0000000000,153.0000000000,759.0000000000
1717675033915,220.0000000000,21.0000000000,66.0000000000,215.0000000000,209.0000000000,748.0000000000
1717675033915,218.0000000000,21.0000000000,67.0000000000,213.0000000000,207.0000000000,739.0000000000
1717675033915,217.0000000000,21.0000000000,65.0000000000,211.0000000000,206.0000000000,731.0000000000
1717675033937,215.0000000000,21.0000000000,65.0000000000,210.0000000000,204.0000000000,723.0000000000
1717675033938,214.0000000000,20.0000000000,65.0000000000,209.0000000000,203.0000000000,716.0000000000
1717675033938,212.0000000000,20.0000000000,65.0000000000,208.0000000000,249.0000000000,707.0000000000
1717675033938,211.0000000000,19.0000000000,63.0000000000,207.0000000000,247.0000000000,699.0000000000
1717675033938,209.0000000000,19.0000000000,63.0000000000,205.0000000000,244.0000000000,691.0000000000
1717675033938,208.0000000000,19.0000000000,63.0000000000,204.0000000000,243.0000000000,684.0000000000
1717675033938,207.0000000000,19.0000000000,63.0000000000,203.0000000000,241.0000000000,768.0000000000
1717675033938,205.0000000000,27.0000000000,69.0000000000,201.0000000000,239.0000000000,758.0000000000
1717675033938,204.0000000000,27.0000000000,68.0000000000,199.0000000000,238.0000000000,748.0000000000
1717675033938,203.0000000000,26.0000000000,67.0000000000,199.0000000000,236.0000000000,739.0000000000
1717675033953,201.0000000000,26.0000000000,67.0000000000,197.0000000000,235.0000000000,729.0000000000
1717675033954,199.0000000000,26.0000000000,67.0000000000,195.0000000000,233.0000000000,721.0000000000
1717675033955,199.0000000000,25.0000000000,66.0000000000,195.0000000000,231.0000000000,711.0000000000
1717675033955,198.0000000000,25.0000000000,66.0000000000,193.0000000000,231.0000000000,775.0000000000
1717675033955,238.0000000000,25.0000000000,66.0000000000,192.0000000000,230.0000000000,814.0000000000
1717675033955,246.0000000000,25.0000000000,65.0000000000,191.0000000000,227.0000000000,806.0000000000
1717675033956,243.0000000000,25.0000000000,65.0000000000,190.0000000000,227.0000000000,795.0000000000
1717675033956,241.0000000000,24.0000000000,63.0000000000,189.0000000000,225.0000000000,784.0000000000
1717675033956,240.0000000000,24.0000000000,63.0000000000,188.0000000000,223.0000000000,775.0000000000
1717675033957,238.0000000000,24.0000000000,63.0000000000,187.0000000000,222.0000000000,765.0000000000
1717675033957,236.0000000000,24.0000000000,63.0000000000,185.0000000000,220.0000000000,755.0000000000
1717675033981,234.0000000000,24.0000000000,63.0000000000,184.0000000000,219.0000000000,746.0000000000
1717675033982,252.0000000000,24.0000000000,63.0000000000,184.0000000000,280.0000000000,737.0000000000
1717675033982,263.0000000000,24.0000000000,62.0000000000,182.0000000000,287.0000000000,728.0000000000
1717675033983,260.0000000000,24.0000000000,62.0000000000,180.0000000000,300.0000000000,719.0000000000
1717675033983,258.0000000000,24.0000000000,61.0000000000,179.0000000000,343.0000000000,711.0000000000
1717675033983,255.0000000000,24.0000000000,61.0000000000,178.0000000000,339.0000000000,704.0000000000
1717675033983,254.0000000000,24.0000000000,60.0000000000,177.0000000000,335.0000000000,696.0000000000
1717675033983,252.0000000000,23.0000000000,60.0000000000,176.0000000000,333.0000000000,688.0000000000
1717675033984,251.0000000000,23.0000000000,60.0000000000,176.0000000000,330.0000000000,683.0000000000
1717675033984,248.0000000000,23.0000000000,59.0000000000,174.0000000000,327.0000000000,675.0000000000
1717675033984,247.0000000000,23.0000000000,59.0000000000,173.0000000000,326.0000000000,668.0000000000
1717675033985,245.0000000000,22.0000000000,59.0000000000,172.0000000000,323.0000000000,862.0000000000
1717675033985,265.0000000000,22.0000000000,59.0000000000,171.0000000000,319.0000000000,876.0000000000
1717675033985,263.0000000000,22.0000000000,58.0000000000,169.0000000000,318.0000000000,863.0000000000
1717675034004,260.0000000000,22.0000000000,57.0000000000,167.0000000000,315.0000000000,851.0000000000
1717675034005,259.0000000000,22.0000000000,56.0000000000,167.0000000000,313.0000000000,839.0000000000
1717675034005,257.0000000000,22.0000000000,57.0000000000,167.0000000000,312.0000000000,828.0000000000
1717675034005,255.0000000000,21.0000000000,56.0000000000,166.0000000000,309.0000000000,817.0000000000
1717675034005,253.0000000000,22.0000000000,56.0000000000,164.0000000000,307.0000000000,807.0000000000
1717675034005,251.0000000000,21.0000000000,56.0000000000,163.0000000000,304.0000000000,796.0000000000
1717675034006,249.0000000000,20.0000000000,56.0000000000,163.0000000000,302.0000000000,786.0000000000
1717675034006,248.0000000000,21.0000000000,56.0000000000,161.0000000000,300.0000000000,776.0000000000
1717675034006,246.0000000000,20.0000000000,55.0000000000,161.0000000000,297.0000000000,769.0000000000
1717675034006,243.0000000000,20.0000000000,55.0000000000,159.0000000000,295.0000000000,760.0000000000
1717675034006,243.0000000000,20.0000000000,54.0000000000,159.0000000000,294.0000000000,752.0000000000
1717675034023,240.0000000000,19.0000000000,54.0000000000,158.0000000000,291.0000000000,743.0000000000
1717675034025,239.0000000000,20.0000000000,54.0000000000,156.0000000000,289.0000000000,734.0000000000
1717675034025,236.0000000000,19.0000000000,54.0000000000,156.0000000000,287.0000000000,726.0000000000
1717675034025,236.0000000000,19.0000000000,53.0000000000,156.0000000000,286.0000000000,794.0000000000
1717675034026,233.0000000000,19.0000000000,53.0000000000,156.0000000000,284.0000000000,871.0000000000
1717675034026,231.0000000000,19.0000000000,52.0000000000,154.0000000000,282.0000000000,857.0000000000
1717675034026,231.0000000000,19.0000000000,52.0000000000,153.0000000000,280.0000000000,846.0000000000
1717675034026,238.0000000000,19.0000000000,51.0000000000,152.0000000000,279.0000000000,834.0000000000
1717675034026,236.0000000000,19.0000000000,51.0000000000,152.0000000000,276.0000000000,824.0000000000
1717675034027,233.0000000000,19.0000000000,51.0000000000,151.0000000000,275.0000000000,812.0000000000
1717675034041,231.0000000000,19.0000000000,51.0000000000,150.0000000000,272.0000000000,802.0000000000
1717675034042,231.0000000000,18.0000000000,50.0000000000,148.0000000000,271.0000000000,795.0000000000
1717675034042,228.0000000000,18.0000000000,51.0000000000,148.0000000000,269.0000000000,784.0000000000
1717675034042,227.0000000000,18.0000000000,50.0000000000,147.0000000000,267.0000000000,775.0000000000
1717675034042,225.0000000000,17.0000000000,49.0000000000,147.0000000000,265.0000000000,765.0000000000
1717675034043,224.0000000000,18.0000000000,49.0000000000,145.0000000000,263.0000000000,755.0000000000
1717675034043,223.0000000000,17.0000000000,49.0000000000,144.0000000000,262.0000000000,747.0000000000
1717675034043,222.0000000000,18.0000000000,49.0000000000,143.0000000000,260.0000000000,738.0000000000
1717675034056,220.0000000000,17.0000000000,48.0000000000,143.0000000000,265.0000000000,729.0000000000
1717675034058,219.0000000000,17.0000000000,48.0000000000,142.0000000000,292.0000000000,721.0000000000
1717675034058,216.0000000000,17.0000000000,48.0000000000,141.0000000000,289.0000000000,713.0000000000
1717675034058,216.0000000000,17.0000000000,48.0000000000,226.0000000000,287.0000000000,705.0000000000
1717675034058,215.0000000000,17.0000000000,47.0000000000,224.0000000000,285.0000000000,745.0000000000
1717675034058,212.0000000000,17.0000000000,47.0000000000,222.0000000000,283.0000000000,736.0000000000
1717675034058,211.0000000000,16.0000000000,47.0000000000,220.0000000000,280.0000000000,726.0000000000
1717675034058,210.0000000000,17.0000000000,47.0000000000,218.0000000000,279.0000000000,719.0000000000
1717675034059,207.0000000000,16.0000000000,46.0000000000,217.0000000000,324.0000000000,711.0000000000
1717675034074,207.0000000000,16.0000000000,46.0000000000,216.0000000000,319.0000000000,703.0000000000
1717675034076,237.0000000000,16.0000000000,57.0000000000,215.0000000000,318.0000000000,860.0000000000
1717675034076,338.0000000000,16.0000000000,79.0000000000,212.0000000000,315.0000000000,846.0000000000
1717675034076,334.0000000000,16.0000000000,79.0000000000,211.0000000000,312.0000000000,834.0000000000
1717675034076,331.0000000000,16.0000000000,79.0000000000,209.0000000000,310.0000000000,823.0000000000
1717675034077,327.0000000000,15.0000000000,78.0000000000,207.0000000000,307.0000000000,812.0000000000
1717675034078,326.0000000000,15.0000000000,78.0000000000,206.0000000000,306.0000000000,801.0000000000
1717675034078,323.0000000000,15.0000000000,77.0000000000,205.0000000000,304.0000000000,792.0000000000
1717675034078,319.0000000000,15.0000000000,76.0000000000,204.0000000000,301.0000000000,781.0000000000
1717675034078,318.0000000000,15.0000000000,76.0000000000,201.0000000000,299.0000000000,771.0000000000
1717675034101,315.0000000000,15.0000000000,76.0000000000,200.0000000000,296.0000000000,763.0000000000
1717675034102,312.0000000000,15.0000000000,75.0000000000,199.0000000000,295.0000000000,752.0000000000
1717675034102,310.0000000000,15.0000000000,75.0000000000,198.0000000000,292.0000000000,743.0000000000
1717675034102,307.0000000000,15.0000000000,73.0000000000,196.0000000000,290.0000000000,737.0000000000
1717675034103,305.0000000000,15.0000000000,73.0000000000,195.0000000000,287.0000000000,728.0000000000
1717675034103,303.0000000000,15.0000000000,72.0000000000,194.0000000000,287.0000000000,720.0000000000
1717675034104,301.0000000000,15.0000000000,72.0000000000,192.0000000000,284.0000000000,711.0000000000
1717675034104,299.0000000000,15.0000000000,71.0000000000,192.0000000000,282.0000000000,704.0000000000
1717675034104,295.0000000000,15.0000000000,71.0000000000,190.0000000000,280.0000000000,696.0000000000
1717675034104,295.0000000000,15.0000000000,71.0000000000,189.0000000000,279.0000000000,688.0000000000
1717675034105,292.0000000000,14.0000000000,71.0000000000,188.0000000000,276.0000000000,681.0000000000
1717675034105,290.0000000000,14.0000000000,70.0000000000,187.0000000000,275.0000000000,674.0000000000
1717675034105,288.0000000000,14.0000000000,70.0000000000,248.0000000000,273.0000000000,667.0000000000
1717675034125,287.0000000000,15.0000000000,69.0000000000,246.0000000000,271.0000000000,659.0000000000
1717675034127,284.0000000000,14.0000000000,69.0000000000,243.0000000000,269.0000000000,653.0000000000
1717675034127,282.0000000000,14.0000000000,68.0000000000,241.0000000000,267.0000000000,647.0000000000
1717675034127,280.0000000000,14.0000000000,67.0000000000,240.0000000000,265.0000000000,639.0000000000
1717675034128,278.0000000000,14.0000000000,67.0000000000,238.0000000000,263.0000000000,636.0000000000
1717675034128,276.0000000000,14.0000000000,67.0000000000,236.0000000000,263.0000000000,737.0000000000
1717675034129,275.0000000000,14.0000000000,67.0000000000,235.0000000000,260.0000000000,760.0000000000
1717675034129,273.0000000000,13.0000000000,66.0000000000,231.0000000000,258.0000000000,748.0000000000
1717675034129,271.0000000000,14.0000000000,66.0000000000,231.0000000000,256.0000000000,739.0000000000
1717675034129,280.0000000000,13.0000000000,65.0000000000,229.0000000000,255.0000000000,731.0000000000
1717675034130,278.0000000000,14.0000000000,65.0000000000,227.0000000000,254.0000000000,721.0000000000
1717675034130,275.0000000000,13.0000000000,64.0000000000,226.0000000000,252.0000000000,712.0000000000
1717675034150,273.0000000000,13.0000000000,63.0000000000,224.0000000000,251.0000000000,704.0000000000
1717675034151,271.0000000000,13.0000000000,63.0000000000,223.0000000000,249.0000000000,696.0000000000
1717675034151,270.0000000000,12.0000000000,63.0000000000,221.0000000000,248.0000000000,688.0000000000
1717675034151,268.0000000000,13.0000000000,63.0000000000,220.0000000000,246.0000000000,679.0000000000
1717675034151,265.0000000000,12.0000000000,63.0000000000,217.0000000000,244.0000000000,673.0000000000
1717675034151,263.0000000000,12.0000000000,62.0000000000,216.0000000000,243.0000000000,668.0000000000
1717675034151,263.0000000000,12.0000000000,62.0000000000,215.0000000000,241.0000000000,665.0000000000
1717675034151,260.0000000000,12.0000000000,61.0000000000,214.0000000000,240.0000000000,659.0000000000
1717675034151,259.0000000000,12.0000000000,61.0000000000,211.0000000000,238.0000000000,652.0000000000
1717675034152,257.0000000000,12.0000000000,61.0000000000,211.0000000000,236.0000000000,644.0000000000
1717675034152,255.0000000000,12.0000000000,60.0000000000,209.0000000000,235.0000000000,638.0000000000
1717675034152,254.0000000000,12.0000000000,60.0000000000,207.0000000000,234.0000000000,632.0000000000
1717675034152,252.0000000000,12.0000000000,60.0000000000,207.0000000000,231.0000000000,625.0000000000
1717675034165,251.0000000000,11.0000000000,59.0000000000,205.0000000000,231.0000000000,619.0000000000
1717675034166,248.0000000000,12.0000000000,59.0000000000,204.0000000000,230.0000000000,612.0000000000
1717675034166,247.0000000000,12.0000000000,58.0000000000,203.0000000000,228.0000000000,607.0000000000
1717675034166,246.0000000000,12.0000000000,57.0000000000,201.0000000000,227.0000000000,600.0000000000
1717675034166,243.0000000000,12.0000000000,57.0000000000,199.0000000000,225.0000000000,595.0000000000
1717675034167,243.0000000000,12.0000000000,57.0000000000,199.0000000000,299.0000000000,590.0000000000
1717675034183,241.0000000000,12.0000000000,56.0000000000,197.0000000000,295.0000000000,587.0000000000
1717675034184,240.0000000000,11.0000000000,56.0000000000,195.0000000000,293.0000000000,652.0000000000
1717675034185,238.0000000000,12.0000000000,56.0000000000,195.0000000000,291.0000000000,643.0000000000
1717675034185,236.0000000000,11.0000000000,56.0000000000,193.0000000000,288.0000000000,636.0000000000
1717675034185,235.0000000000,11.0000000000,56.0000000000,192.0000000000,286.0000000000,628.0000000000
1717675034185,233.0000000000,12.0000000000,56.0000000000,191.0000000000,284.0000000000,622.0000000000
1717675034186,231.0000000000,12.0000000000,56.0000000000,190.0000000000,281.0000000000,615.0000000000
1717675034186,231.0000000000,11.0000000000,56.0000000000,188.0000000000,280.0000000000,608.0000000000
1717675034187,228.0000000000,11.0000000000,55.0000000000,188.0000000000,278.0000000000,601.0000000000
1717675034187,227.0000000000,11.0000000000,54.0000000000,186.0000000000,276.0000000000,595.0000000000
1717675034187,225.0000000000,11.0000000000,54.0000000000,185.0000000000,274.0000000000,590.0000000000
1717675034203,224.0000000000,11.0000000000,54.0000000000,184.0000000000,271.0000000000,583.0000000000
1717675034203,224.0000000000,11.0000000000,54.0000000000,183.0000000000,271.0000000000,579.0000000000
1717675034203,222.0000000000,10.0000000000,53.0000000000,181.0000000000,340.0000000000,573.0000000000
1717675034204,220.0000000000,10.0000000000,53.0000000000,193.0000000000,337.0000000000,568.0000000000
1717675034204,220.0000000000,11.0000000000,52.0000000000,192.0000000000,334.0000000000,563.0000000000
1717675034204,217.0000000000,11.0000000000,52.0000000000,191.0000000000,332.0000000000,558.0000000000
1717675034204,216.0000000000,10.0000000000,51.0000000000,189.0000000000,327.0000000000,553.0000000000
1717675034204,216.0000000000,10.0000000000,51.0000000000,188.0000000000,326.0000000000,548.0000000000
1717675034220,214.0000000000,10.0000000000,51.0000000000,187.0000000000,323.0000000000,543.0000000000
1717675034221,212.0000000000,10.0000000000,51.0000000000,185.0000000000,321.0000000000,539.0000000000
1717675034221,211.0000000000,10.0000000000,50.0000000000,184.0000000000,319.0000000000,535.0000000000
1717675034221,209.0000000000,9.0000000000,50.0000000000,183.0000000000,317.0000000000,530.0000000000
1717675034221,209.0000000000,10.0000000000,49.0000000000,182.0000000000,314.0000000000,526.0000000000
1717675034221,207.0000000000,9.0000000000,49.0000000000,180.0000000000,312.0000000000,521.0000000000
1717675034221,206.0000000000,11.0000000000,49.0000000000,179.0000000000,310.0000000000,518.0000000000
1717675034221,205.0000000000,11.0000000000,49.0000000000,178.0000000000,307.0000000000,513.0000000000
1717675034221,204.0000000000,10.0000000000,49.0000000000,177.0000000000,305.0000000000,509.0000000000
1717675034221,203.0000000000,11.0000000000,48.0000000000,176.0000000000,303.0000000000,504.0000000000
1717675034222,201.0000000000,10.0000000000,48.0000000000,175.0000000000,300.0000000000,500.0000000000
1717675034239,199.0000000000,10.0000000000,48.0000000000,174.0000000000,299.0000000000,496.0000000000
1717675034240,199.0000000000,10.0000000000,47.0000000000,172.0000000000,295.0000000000,492.0000000000
1717675034241,198.0000000000,10.0000000000,47.0000000000,172.0000000000,295.0000000000,488.0000000000
1717675034241,196.0000000000,10.0000000000,47.0000000000,171.0000000000,293.0000000000,540.0000000000
1717675034241,195.0000000000,9.0000000000,47.0000000000,169.0000000000,291.0000000000,545.0000000000
1717675034242,195.0000000000,10.0000000000,46.0000000000,167.0000000000,289.0000000000,540.0000000000
1717675034242,193.0000000000,10.0000000000,46.0000000000,167.0000000000,287.0000000000,534.0000000000
1717675034242,192.0000000000,9.0000000000,46.0000000000,166.0000000000,285.0000000000,530.0000000000
1717675034242,191.0000000000,9.0000000000,46.0000000000,166.0000000000,283.0000000000,524.0000000000
1717675034243,190.0000000000,9.0000000000,45.0000000000,164.0000000000,281.0000000000,519.0000000000
1717675034269,188.0000000000,9.0000000000,45.0000000000,163.0000000000,279.0000000000,515.0000000000
1717675034270,188.0000000000,9.0000000000,45.0000000000,163.0000000000,277.0000000000,589.0000000000
1717675034270,187.0000000000,9.0000000000,44.0000000000,162.0000000000,275.0000000000,582.0000000000
1717675034270,185.0000000000,9.0000000000,44.0000000000,160.0000000000,274.0000000000,575.0000000000
1717675034271,184.0000000000,9.0000000000,44.0000000000,159.0000000000,272.0000000000,569.0000000000
1717675034271,184.0000000000,9.0000000000,44.0000000000,159.0000000000,307.0000000000,565.0000000000
1717675034271,183.0000000000,8.0000000000,44.0000000000,158.0000000000,304.0000000000,559.0000000000
1717675034272,182.0000000000,9.0000000000,44.0000000000,156.0000000000,303.0000000000,601.0000000000
1717675034272,180.0000000000,9.0000000000,43.0000000000,156.0000000000,300.0000000000,593.0000000000
1717675034272,179.0000000000,9.0000000000,43.0000000000,155.0000000000,297.0000000000,589.0000000000
1717675034272,179.0000000000,8.0000000000,43.0000000000,154.0000000000,295.0000000000,583.0000000000
1717675034273,177.0000000000,9.0000000000,43.0000000000,153.0000000000,294.0000000000,647.0000000000
1717675034273,176.0000000000,9.0000000000,41.0000000000,152.0000000000,291.0000000000,705.0000000000
1717675034273,176.0000000000,7.0000000000,42.0000000000,152.0000000000,289.0000000000,699.0000000000
1717675034273,174.0000000000,8.0000000000,41.0000000000,151.0000000000,287.0000000000,689.0000000000
1717675034274,174.0000000000,7.0000000000,41.0000000000,150.0000000000,286.0000000000,681.0000000000
1717675034291,173.0000000000,8.0000000000,40.0000000000,149.0000000000,284.0000000000,673.0000000000
1717675034292,172.0000000000,7.0000000000,41.0000000000,148.0000000000,281.0000000000,668.0000000000
1717675034292,171.0000000000,8.0000000000,41.0000000000,147.0000000000,280.0000000000,697.0000000000
1717675034292,169.0000000000,7.0000000000,39.0000000000,146.0000000000,278.0000000000,688.0000000000
1717675034292,168.0000000000,7.0000000000,39.0000000000,145.0000000000,276.0000000000,679.0000000000
1717675034292,167.0000000000,7.0000000000,39.0000000000,144.0000000000,274.0000000000,673.0000000000
1717675034292,167.0000000000,7.0000000000,39.0000000000,144.0000000000,271.0000000000,665.0000000000
1717675034292,167.0000000000,7.0000000000,39.0000000000,143.0000000000,270.0000000000,659.0000000000
1717675034293,166.0000000000,7.0000000000,39.0000000000,142.0000000000,269.0000000000,652.0000000000
1717675034293,164.0000000000,7.0000000000,39.0000000000,141.0000000000,267.0000000000,644.0000000000
1717675034293,163.0000000000,7.0000000000,38.0000000000,141.0000000000,265.0000000000,639.0000000000
1717675034308,163.0000000000,7.0000000000,39.0000000000,140.0000000000,263.0000000000,632.0000000000
1717675034309,162.0000000000,7.0000000000,39.0000000000,140.0000000000,263.0000000000,625.0000000000
1717675034309,161.0000000000,7.0000000000,38.0000000000,139.0000000000,260.0000000000,619.0000000000
1717675034309,160.0000000000,7.0000000000,38.0000000000,138.0000000000,259.0000000000,614.0000000000
1717675034310,159.0000000000,7.0000000000,38.0000000000,137.0000000000,257.0000000000,729.0000000000
1717675034310,248.0000000000,7.0000000000,47.0000000000,136.0000000000,255.0000000000,829.0000000000
1717675034310,299.0000000000,8.0000000000,63.0000000000,135.0000000000,255.0000000000,817.0000000000
1717675034310,295.0000000000,7.0000000000,63.0000000000,135.0000000000,252.0000000000,809.0000000000
1717675034324,293.0000000000,7.0000000000,63.0000000000,134.0000000000,251.0000000000,799.0000000000
1717675034324,290.0000000000,7.0000000000,63.0000000000,134.0000000000,249.0000000000,788.0000000000
1717675034326,287.0000000000,7.0000000000,62.0000000000,132.0000000000,248.0000000000,778.0000000000
1717675034326,286.0000000000,7.0000000000,62.0000000000,132.0000000000,247.0000000000,771.0000000000
1717675034326,284.0000000000,7.0000000000,61.0000000000,131.0000000000,244.0000000000,760.0000000000
1717675034326,282.0000000000,7.0000000000,60.0000000000,131.0000000000,243.0000000000,752.0000000000
1717675034326,280.0000000000,7.0000000000,60.0000000000,130.0000000000,248.0000000000,743.0000000000
1717675034326,278.0000000000,7.0000000000,60.0000000000,129.0000000000,247.0000000000,736.0000000000
1717675034326,276.0000000000,7.0000000000,60.0000000000,128.0000000000,244.0000000000,728.0000000000
1717675034343,274.0000000000,7.0000000000,59.0000000000,127.0000000000,243.0000000000,719.0000000000
1717675034343,271.0000000000,7.0000000000,59.0000000000,127.0000000000,241.0000000000,711.0000000000
1717675034344,270.0000000000,7.0000000000,59.0000000000,127.0000000000,240.0000000000,704.0000000000
1717675034344,268.0000000000,7.0000000000,58.0000000000,126.0000000000,239.0000000000,696.0000000000
1717675034344,267.0000000000,7.0000000000,57.0000000000,125.0000000000,237.0000000000,688.0000000000
1717675034344,263.0000000000,7.0000000000,57.0000000000,124.0000000000,236.0000000000,681.0000000000
1717675034344,263.0000000000,7.0000000000,56.0000000000,124.0000000000,235.0000000000,675.0000000000
1717675034344,261.0000000000,7.0000000000,56.0000000000,124.0000000000,233.0000000000,668.0000000000
1717675034344,259.0000000000,7.0000000000,56.0000000000,123.0000000000,231.0000000000,662.0000000000
1717675034344,257.0000000000,7.0000000000,56.0000000000,121.0000000000,231.0000000000,655.0000000000
1717675034344,255.0000000000,7.0000000000,56.0000000000,220.0000000000,228.0000000000,647.0000000000
1717675034358,254.0000000000,7.0000000000,56.0000000000,217.0000000000,227.0000000000,643.0000000000
1717675034359,252.0000000000,7.0000000000,55.0000000000,216.0000000000,226.0000000000,636.0000000000
1717675034359,251.0000000000,7.0000000000,54.0000000000,214.0000000000,225.0000000000,630.0000000000
1717675034360,249.0000000000,7.0000000000,54.0000000000,212.0000000000,224.0000000000,772.0000000000
1717675034360,248.0000000000,15.0000000000,97.0000000000,210.0000000000,223.0000000000,764.0000000000
1717675034360,246.0000000000,15.0000000000,97.0000000000,209.0000000000,221.0000000000,753.0000000000
1717675034360,244.0000000000,14.0000000000,96.0000000000,207.0000000000,220.0000000000,743.0000000000
1717675034360,243.0000000000,14.0000000000,95.0000000000,206.0000000000,234.0000000000,735.0000000000
1717675034360,241.0000000000,15.0000000000,95.0000000000,204.0000000000,231.0000000000,726.0000000000
1717675034377,240.0000000000,14.0000000000,94.0000000000,203.0000000000,231.0000000000,717.0000000000
1717675034377,238.0000000000,14.0000000000,93.0000000000,201.0000000000,229.0000000000,708.0000000000
1717675034377,236.0000000000,14.0000000000,92.0000000000,199.0000000000,227.0000000000,700.0000000000
1717675034377,235.0000000000,14.0000000000,92.0000000000,199.0000000000,231.0000000000,692.0000000000
1717675034377,233.0000000000,14.0000000000,91.0000000000,197.0000000000,269.0000000000,684.0000000000
1717675034378,231.0000000000,13.0000000000,91.0000000000,196.0000000000,303.0000000000,678.0000000000
1717675034378,231.0000000000,14.0000000000,90.0000000000,194.0000000000,359.0000000000,724.0000000000
1717675034378,228.0000000000,13.0000000000,89.0000000000,195.0000000000,356.0000000000,892.0000000000
1717675034394,344.0000000000,65.0000000000,137.0000000000,252.0000000000,352.0000000000,877.0000000000
1717675034395,338.0000000000,63.0000000000,135.0000000000,249.0000000000,350.0000000000,864.0000000000
1717675034395,335.0000000000,63.0000000000,135.0000000000,248.0000000000,346.0000000000,851.0000000000
1717675034395,332.0000000000,63.0000000000,133.0000000000,245.0000000000,344.0000000000,840.0000000000
1717675034395,328.0000000000,62.0000000000,132.0000000000,243.0000000000,340.0000000000,830.0000000000
1717675034395,326.0000000000,62.0000000000,131.0000000000,241.0000000000,337.0000000000,819.0000000000
1717675034395,323.0000000000,61.0000000000,130.0000000000,240.0000000000,335.0000000000,807.0000000000
1717675034395,321.0000000000,60.0000000000,129.0000000000,238.0000000000,332.0000000000,798.0000000000
1717675034411,318.0000000000,60.0000000000,127.0000000000,236.0000000000,330.0000000000,785.0000000000
1717675034412,316.0000000000,60.0000000000,127.0000000000,233.0000000000,327.0000000000,775.0000000000
1717675034412,313.0000000000,59.0000000000,127.0000000000,231.0000000000,325.0000000000,766.0000000000
1717675034413,312.0000000000,59.0000000000,126.0000000000,231.0000000000,323.0000000000,757.0000000000
1717675034413,308.0000000000,57.0000000000,125.0000000000,229.0000000000,319.0000000000,748.0000000000
1717675034413,306.0000000000,57.0000000000,124.0000000000,227.0000000000,318.0000000000,739.0000000000
1717675034413,304.0000000000,57.0000000000,123.0000000000,225.0000000000,315.0000000000,731.0000000000
1717675034413,301.0000000000,56.0000000000,121.0000000000,224.0000000000,312.0000000000,722.0000000000
1717675034413,299.0000000000,56.0000000000,121.0000000000,223.0000000000,310.0000000000,713.0000000000
1717675034414,296.0000000000,56.0000000000,120.0000000000,221.0000000000,308.0000000000,706.0000000000
1717675034443,295.0000000000,56.0000000000,120.0000000000,219.0000000000,306.0000000000,696.0000000000
1717675034444,292.0000000000,55.0000000000,120.0000000000,217.0000000000,304.0000000000,688.0000000000
1717675034444,290.0000000000,55.0000000000,118.0000000000,216.0000000000,302.0000000000,681.0000000000
1717675034445,287.0000000000,54.0000000000,118.0000000000,215.0000000000,300.0000000000,673.0000000000
1717675034445,286.0000000000,54.0000000000,116.0000000000,213.0000000000,297.0000000000,667.0000000000
1717675034445,284.0000000000,53.0000000000,115.0000000000,211.0000000000,295.0000000000,659.0000000000
1717675034445,281.0000000000,54.0000000000,115.0000000000,210.0000000000,292.0000000000,653.0000000000
1717675034446,280.0000000000,53.0000000000,115.0000000000,208.0000000000,291.0000000000,647.0000000000
1717675034446,278.0000000000,52.0000000000,114.0000000000,207.0000000000,288.0000000000,639.0000000000
1717675034446,275.0000000000,52.0000000000,113.0000000000,206.0000000000,287.0000000000,843.0000000000
1717675034447,274.0000000000,52.0000000000,112.0000000000,204.0000000000,285.0000000000,874.0000000000
1717675034447,271.0000000000,51.0000000000,112.0000000000,203.0000000000,283.0000000000,862.0000000000
1717675034447,270.0000000000,51.0000000000,111.0000000000,201.0000000000,281.0000000000,849.0000000000
1717675034447,268.0000000000,51.0000000000,110.0000000000,199.0000000000,280.0000000000,838.0000000000
1717675034448,265.0000000000,50.0000000000,109.0000000000,199.0000000000,277.0000000000,827.0000000000
1717675034448,263.0000000000,50.0000000000,108.0000000000,197.0000000000,275.0000000000,816.0000000000
1717675034518,262.0000000000,49.0000000000,108.0000000000,195.0000000000,273.0000000000,806.0000000000
1717675034519,260.0000000000,49.0000000000,107.0000000000,195.0000000000,271.0000000000,796.0000000000
1717675034520,259.0000000000,49.0000000000,107.0000000000,193.0000000000,270.0000000000,785.0000000000
1717675034520,257.0000000000,48.0000000000,106.0000000000,192.0000000000,268.0000000000,775.0000000000
1717675034520,255.0000000000,48.0000000000,105.0000000000,191.0000000000,265.0000000000,764.0000000000
1717675034520,254.0000000000,48.0000000000,104.0000000000,190.0000000000,373.0000000000,755.0000000000
1717675034520,252.0000000000,47.0000000000,103.0000000000,189.0000000000,369.0000000000,745.0000000000
1717675034520,250.0000000000,47.0000000000,103.0000000000,188.0000000000,365.0000000000,736.0000000000
1717675034521,248.0000000000,47.0000000000,103.0000000000,187.0000000000,362.0000000000,728.0000000000
1717675034521,247.0000000000,47.0000000000,102.0000000000,185.0000000000,359.0000000000,793.0000000000
1717675034521,245.0000000000,47.0000000000,106.0000000000,184.0000000000,355.0000000000,904.0000000000
1717675034521,243.0000000000,46.0000000000,104.0000000000,183.0000000000,352.0000000000,913.0000000000
1717675034521,242.0000000000,46.0000000000,103.0000000000,182.0000000000,350.0000000000,909.0000000000
1717675034522,240.0000000000,46.0000000000,103.0000000000,180.0000000000,347.0000000000,890.0000000000
1717675034522,239.0000000000,45.0000000000,103.0000000000,179.0000000000,344.0000000000,873.0000000000
1717675034522,237.0000000000,45.0000000000,102.0000000000,177.0000000000,342.0000000000,861.0000000000
1717675034523,236.0000000000,45.0000000000,102.0000000000,176.0000000000,339.0000000000,849.0000000000
1717675034523,234.0000000000,44.0000000000,100.0000000000,176.0000000000,336.0000000000,839.0000000000
1717675034523,231.0000000000,44.0000000000,100.0000000000,175.0000000000,334.0000000000,828.0000000000
1717675034523,231.0000000000,44.0000000000,99.0000000000,174.0000000000,332.0000000000,817.0000000000
1717675034524,229.0000000000,44.0000000000,99.0000000000,172.0000000000,329.0000000000,807.0000000000
1717675034524,228.0000000000,43.0000000000,98.0000000000,171.0000000000,327.0000000000,796.0000000000
1717675034524,227.0000000000,43.0000000000,97.0000000000,171.0000000000,324.0000000000,787.0000000000
1717675034524,225.0000000000,42.0000000000,97.0000000000,169.0000000000,321.0000000000,777.0000000000
1717675034525,224.0000000000,42.0000000000,97.0000000000,167.0000000000,319.0000000000,768.0000000000
1717675034525,222.0000000000,41.0000000000,96.0000000000,167.0000000000,317.0000000000,760.0000000000
1717675034525,220.0000000000,41.0000000000,95.0000000000,166.0000000000,316.0000000000,752.0000000000
1717675034525,220.0000000000,41.0000000000,95.0000000000,166.0000000000,312.0000000000,743.0000000000
1717675034526,218.0000000000,41.0000000000,95.0000000000,163.0000000000,310.0000000000,735.0000000000
1717675034526,217.0000000000,41.0000000000,94.0000000000,163.0000000000,308.0000000000,726.0000000000
1717675034527,216.0000000000,39.0000000000,93.0000000000,162.0000000000,306.0000000000,718.0000000000
1717675034527,214.0000000000,39.0000000000,93.0000000000,161.0000000000,304.0000000000,710.0000000000
1717675034527,213.0000000000,39.0000000000,92.0000000000,160.0000000000,302.0000000000,702.0000000000
1717675034527,211.0000000000,39.0000000000,91.0000000000,159.0000000000,300.0000000000,694.0000000000
1717675034528,210.0000000000,39.0000000000,91.0000000000,158.0000000000,297.0000000000,687.0000000000
1717675034528,209.0000000000,39.0000000000,91.0000000000,158.0000000000,295.0000000000,679.0000000000
1717675034528,207.0000000000,39.0000000000,90.0000000000,156.0000000000,294.0000000000,671.0000000000
1717675034529,207.0000000000,39.0000000000,89.0000000000,243.0000000000,292.0000000000,665.0000000000
1717675034529,205.0000000000,39.0000000000,89.0000000000,252.0000000000,291.0000000000,658.0000000000
1717675034529,204.0000000000,38.0000000000,88.0000000000,249.0000000000,287.0000000000,739.0000000000
1717675034530,203.0000000000,38.0000000000,88.0000000000,248.0000000000,286.0000000000,729.0000000000
1717675034583,201.0000000000,38.0000000000,88.0000000000,247.0000000000,284.0000000000,720.0000000000
1717675034586,199.0000000000,37.0000000000,87.0000000000,244.0000000000,283.0000000000,711.0000000000
1717675034587,199.0000000000,37.0000000000,87.0000000000,243.0000000000,280.0000000000,703.0000000000
1717675034588,198.0000000000,36.0000000000,86.0000000000,240.0000000000,279.0000000000,695.0000000000
1717675034589,196.0000000000,36.0000000000,86.0000000000,239.0000000000,276.0000000000,686.0000000000
1717675034589,195.0000000000,36.0000000000,85.0000000000,238.0000000000,275.0000000000,679.0000000000
1717675034589,195.0000000000,35.0000000000,84.0000000000,236.0000000000,273.0000000000,671.0000000000
1717675034589,193.0000000000,35.0000000000,83.0000000000,233.0000000000,271.0000000000,664.0000000000
1717675034590,192.0000000000,35.0000000000,83.0000000000,231.0000000000,270.0000000000,655.0000000000
1717675034590,192.0000000000,35.0000000000,83.0000000000,231.0000000000,268.0000000000,649.0000000000
1717675034590,190.0000000000,35.0000000000,83.0000000000,228.0000000000,267.0000000000,643.0000000000
1717675034591,189.0000000000,35.0000000000,82.0000000000,227.0000000000,263.0000000000,636.0000000000
1717675034591,188.0000000000,35.0000000000,81.0000000000,225.0000000000,263.0000000000,630.0000000000
1717675034592,187.0000000000,35.0000000000,81.0000000000,224.0000000000,262.0000000000,625.0000000000
1717675034592,185.0000000000,35.0000000000,81.0000000000,223.0000000000,259.0000000000,619.0000000000
1717675034592,184.0000000000,35.0000000000,79.0000000000,221.0000000000,258.0000000000,613.0000000000
1717675034593,184.0000000000,35.0000000000,79.0000000000,220.0000000000,255.0000000000,607.0000000000
1717675034593,183.0000000000,35.0000000000,79.0000000000,219.0000000000,364.0000000000,601.0000000000
1717675034593,181.0000000000,34.0000000000,79.0000000000,216.0000000000,359.0000000000,595.0000000000
1717675034593,179.0000000000,33.0000000000,78.0000000000,216.0000000000,356.0000000000,590.0000000000
1717675034594,179.0000000000,33.0000000000,78.0000000000,214.0000000000,355.0000000000,584.0000000000
1717675034594,178.0000000000,39.0000000000,78.0000000000,211.0000000000,352.0000000000,579.0000000000
1717675034594,177.0000000000,39.0000000000,76.0000000000,211.0000000000,348.0000000000,574.0000000000
1717675034594,176.0000000000,38.0000000000,76.0000000000,209.0000000000,345.0000000000,568.0000000000
1717675034595,176.0000000000,38.0000000000,76.0000000000,207.0000000000,343.0000000000,563.0000000000
1717675034595,174.0000000000,38.0000000000,75.0000000000,207.0000000000,340.0000000000,558.0000000000
1717675034595,173.0000000000,38.0000000000,75.0000000000,205.0000000000,337.0000000000,553.0000000000
1717675034596,172.0000000000,37.0000000000,75.0000000000,204.0000000000,335.0000000000,550.0000000000
1717675034596,171.0000000000,36.0000000000,74.0000000000,203.0000000000,332.0000000000,544.0000000000
1717675034596,169.0000000000,36.0000000000,74.0000000000,201.0000000000,329.0000000000,540.0000000000
1717675034596,169.0000000000,36.0000000000,73.0000000000,199.0000000000,327.0000000000,536.0000000000
1717675034597,167.0000000000,36.0000000000,72.0000000000,230.0000000000,325.0000000000,531.0000000000
1717675034597,167.0000000000,35.0000000000,71.0000000000,227.0000000000,323.0000000000,527.0000000000
1717675034597,167.0000000000,35.0000000000,71.0000000000,225.0000000000,319.0000000000,521.0000000000
1717675034638,165.0000000000,35.0000000000,71.0000000000,224.0000000000,319.0000000000,547.0000000000
1717675034640,164.0000000000,35.0000000000,71.0000000000,222.0000000000,316.0000000000,541.0000000000
1717675034641,163.0000000000,35.0000000000,71.0000000000,220.0000000000,313.0000000000,536.0000000000
1717675034641,163.0000000000,35.0000000000,71.0000000000,219.0000000000,312.0000000000,531.0000000000
1717675034641,161.0000000000,34.0000000000,70.0000000000,217.0000000000,310.0000000000,525.0000000000
1717675034641,161.0000000000,34.0000000000,70.0000000000,216.0000000000,307.0000000000,519.0000000000
1717675034642,159.0000000000,33.0000000000,70.0000000000,214.0000000000,305.0000000000,515.0000000000
1717675034642,159.0000000000,33.0000000000,68.0000000000,213.0000000000,303.0000000000,512.0000000000
1717675034642,158.0000000000,33.0000000000,68.0000000000,211.0000000000,300.0000000000,508.0000000000
1717675034642,157.0000000000,33.0000000000,68.0000000000,209.0000000000,299.0000000000,504.0000000000
1717675034643,156.0000000000,33.0000000000,67.0000000000,207.0000000000,295.0000000000,571.0000000000
1717675034643,156.0000000000,32.0000000000,67.0000000000,207.0000000000,295.0000000000,683.0000000000
1717675034643,195.0000000000,32.0000000000,67.0000000000,206.0000000000,292.0000000000,674.0000000000
1717675034643,193.0000000000,32.0000000000,67.0000000000,204.0000000000,290.0000000000,666.0000000000
1717675034644,192.0000000000,32.0000000000,65.0000000000,203.0000000000,289.0000000000,658.0000000000
1717675034644,191.0000000000,31.0000000000,65.0000000000,201.0000000000,287.0000000000,651.0000000000
1717675034644,189.0000000000,31.0000000000,65.0000000000,199.0000000000,285.0000000000,643.0000000000
1717675034645,188.0000000000,31.0000000000,65.0000000000,199.0000000000,283.0000000000,636.0000000000
1717675034645,187.0000000000,31.0000000000,64.0000000000,198.0000000000,281.0000000000,630.0000000000
1717675034645,185.0000000000,31.0000000000,64.0000000000,195.0000000000,280.0000000000,623.0000000000
1717675034645,184.0000000000,31.0000000000,63.0000000000,195.0000000000,278.0000000000,615.0000000000
1717675034646,183.0000000000,30.0000000000,63.0000000000,193.0000000000,275.0000000000,611.0000000000
1717675034646,182.0000000000,31.0000000000,63.0000000000,192.0000000000,273.0000000000,605.0000000000
1717675034646,180.0000000000,30.0000000000,63.0000000000,191.0000000000,271.0000000000,599.0000000000
1717675034647,179.0000000000,30.0000000000,62.0000000000,190.0000000000,270.0000000000,592.0000000000
1717675034665,177.0000000000,30.0000000000,62.0000000000,188.0000000000,268.0000000000,587.0000000000
1717675034665,176.0000000000,30.0000000000,62.0000000000,188.0000000000,266.0000000000,580.0000000000
1717675034666,175.0000000000,30.0000000000,62.0000000000,187.0000000000,264.0000000000,575.0000000000
1717675034666,174.0000000000,29.0000000000,61.0000000000,185.0000000000,263.0000000000,569.0000000000
1717675034666,173.0000000000,29.0000000000,60.0000000000,184.0000000000,262.0000000000,579.0000000000
1717675034666,172.0000000000,28.0000000000,60.0000000000,183.0000000000,260.0000000000,749.0000000000
1717675034666,171.0000000000,28.0000000000,60.0000000000,182.0000000000,259.0000000000,738.0000000000
1717675034666,169.0000000000,28.0000000000,60.0000000000,190.0000000000,257.0000000000,729.0000000000
1717675034666,184.0000000000,28.0000000000,60.0000000000,220.0000000000,255.0000000000,719.0000000000
1717675034666,183.0000000000,28.0000000000,60.0000000000,217.0000000000,254.0000000000,711.0000000000
1717675034680,182.0000000000,28.0000000000,59.0000000000,216.0000000000,252.0000000000,704.0000000000
1717675034681,180.0000000000,28.0000000000,59.0000000000,214.0000000000,250.0000000000,696.0000000000
1717675034681,179.0000000000,28.0000000000,58.0000000000,212.0000000000,248.0000000000,688.0000000000
1717675034681,177.0000000000,28.0000000000,57.0000000000,211.0000000000,248.0000000000,679.0000000000
1717675034681,176.0000000000,28.0000000000,57.0000000000,209.0000000000,246.0000000000,672.0000000000
1717675034681,175.0000000000,27.0000000000,57.0000000000,207.0000000000,244.0000000000,665.0000000000
1717675034681,174.0000000000,27.0000000000,57.0000000000,207.0000000000,243.0000000000,658.0000000000
1717675034681,173.0000000000,27.0000000000,56.0000000000,205.0000000000,241.0000000000,651.0000000000
1717675034681,172.0000000000,27.0000000000,56.0000000000,204.0000000000,240.0000000000,643.0000000000
1717675034695,170.0000000000,27.0000000000,56.0000000000,201.0000000000,239.0000000000,637.0000000000
1717675034697,169.0000000000,25.0000000000,56.0000000000,201.0000000000,237.0000000000,630.0000000000
1717675034697,167.0000000000,26.0000000000,56.0000000000,199.0000000000,236.0000000000,624.0000000000
1717675034697,167.0000000000,25.0000000000,55.0000000000,198.0000000000,235.0000000000,617.0000000000
1717675034697,166.0000000000,25.0000000000,55.0000000000,196.0000000000,233.0000000000,611.0000000000
1717675034698,164.0000000000,25.0000000000,54.0000000000,195.0000000000,231.0000000000,605.0000000000
1717675034698,163.0000000000,25.0000000000,54.0000000000,194.0000000000,230.0000000000,600.0000000000
1717675034698,163.0000000000,25.0000000000,54.0000000000,192.0000000000,228.0000000000,594.0000000000
1717675034721,161.0000000000,25.0000000000,54.0000000000,192.0000000000,227.0000000000,588.0000000000
1717675034722,159.0000000000,25.0000000000,53.0000000000,190.0000000000,225.0000000000,583.0000000000
1717675034722,159.0000000000,24.0000000000,52.0000000000,189.0000000000,224.0000000000,577.0000000000
1717675034722,159.0000000000,24.0000000000,52.0000000000,188.0000000000,223.0000000000,572.0000000000
1717675034722,157.0000000000,24.0000000000,52.0000000000,187.0000000000,222.0000000000,670.0000000000
1717675034722,156.0000000000,24.0000000000,51.0000000000,185.0000000000,221.0000000000,726.0000000000
1717675034723,156.0000000000,24.0000000000,51.0000000000,184.0000000000,220.0000000000,716.0000000000
1717675034723,155.0000000000,24.0000000000,51.0000000000,183.0000000000,219.0000000000,707.0000000000
1717675034723,153.0000000000,24.0000000000,51.0000000000,182.0000000000,216.0000000000,700.0000000000
1717675034723,152.0000000000,24.0000000000,51.0000000000,180.0000000000,216.0000000000,691.0000000000
1717675034723,152.0000000000,24.0000000000,51.0000000000,179.0000000000,215.0000000000,683.0000000000
1717675034723,152.0000000000,24.0000000000,50.0000000000,178.0000000000,213.0000000000,675.0000000000
1717675034723,151.0000000000,24.0000000000,50.0000000000,177.0000000000,211.0000000000,669.0000000000
1717675034737,150.0000000000,24.0000000000,49.0000000000,176.0000000000,211.0000000000,662.0000000000
1717675034738,148.0000000000,23.0000000000,49.0000000000,175.0000000000,209.0000000000,655.0000000000
1717675034738,147.0000000000,23.0000000000,49.0000000000,174.0000000000,207.0000000000,647.0000000000
1717675034739,147.0000000000,23.0000000000,48.0000000000,172.0000000000,207.0000000000,639.0000000000
1717675034739,147.0000000000,22.0000000000,48.0000000000,172.0000000000,206.0000000000,633.0000000000
1717675034739,145.0000000000,23.0000000000,48.0000000000,171.0000000000,204.0000000000,627.0000000000
1717675034739,144.0000000000,22.0000000000,48.0000000000,169.0000000000,204.0000000000,620.0000000000
1717675034740,143.0000000000,22.0000000000,48.0000000000,167.0000000000,203.0000000000,614.0000000000
1717675034770,143.0000000000,22.0000000000,47.0000000000,167.0000000000,201.0000000000,608.0000000000
1717675034771,176.0000000000,22.0000000000,47.0000000000,167.0000000000,230.0000000000,601.0000000000
1717675034771,174.0000000000,22.0000000000,47.0000000000,165.0000000000,283.0000000000,595.0000000000
1717675034771,172.0000000000,22.0000000000,47.0000000000,163.0000000000,280.0000000000,590.0000000000
1717675034771,172.0000000000,22.0000000000,46.0000000000,163.0000000000,278.0000000000,583.0000000000
1717675034771,169.0000000000,22.0000000000,46.0000000000,162.0000000000,275.0000000000,579.0000000000
1717675034771,168.0000000000,21.0000000000,46.0000000000,161.0000000000,273.0000000000,574.0000000000
1717675034772,167.0000000000,21.0000000000,45.0000000000,159.0000000000,271.0000000000,568.0000000000
1717675034772,167.0000000000,21.0000000000,45.0000000000,159.0000000000,269.0000000000,563.0000000000
1717675034772,165.0000000000,20.0000000000,45.0000000000,158.0000000000,267.0000000000,558.0000000000
1717675034772,164.0000000000,20.0000000000,45.0000000000,158.0000000000,265.0000000000,552.0000000000
1717675034772,163.0000000000,20.0000000000,44.0000000000,156.0000000000,263.0000000000,547.0000000000
1717675034772,180.0000000000,20.0000000000,44.0000000000,156.0000000000,262.0000000000,542.0000000000
1717675034772,179.0000000000,19.0000000000,44.0000000000,155.0000000000,259.0000000000,537.0000000000
1717675034772,178.0000000000,19.0000000000,43.0000000000,153.0000000000,258.0000000000,532.0000000000
1717675034773,176.0000000000,19.0000000000,43.0000000000,153.0000000000,255.0000000000,527.0000000000
1717675034773,175.0000000000,19.0000000000,43.0000000000,152.0000000000,254.0000000000,524.0000000000
1717675034790,174.0000000000,19.0000000000,43.0000000000,151.0000000000,253.0000000000,519.0000000000
1717675034791,172.0000000000,19.0000000000,43.0000000000,150.0000000000,251.0000000000,515.0000000000
1717675034792,172.0000000000,19.0000000000,43.0000000000,149.0000000000,249.0000000000,511.0000000000
1717675034793,169.0000000000,19.0000000000,42.0000000000,148.0000000000,248.0000000000,507.0000000000
1717675034793,186.0000000000,19.0000000000,42.0000000000,147.0000000000,246.0000000000,564.0000000000
1717675034794,185.0000000000,18.0000000000,41.0000000000,147.0000000000,243.0000000000,558.0000000000
1717675034794,184.0000000000,19.0000000000,41.0000000000,146.0000000000,243.0000000000,551.0000000000
1717675034794,182.0000000000,18.0000000000,40.0000000000,145.0000000000,241.0000000000,546.0000000000
1717675034795,180.0000000000,19.0000000000,41.0000000000,143.0000000000,240.0000000000,540.0000000000
1717675034795,179.0000000000,18.0000000000,40.0000000000,143.0000000000,238.0000000000,536.0000000000
1717675034795,177.0000000000,18.0000000000,40.0000000000,143.0000000000,236.0000000000,529.0000000000
1717675034795,176.0000000000,18.0000000000,45.0000000000,142.0000000000,235.0000000000,524.0000000000
1717675034828,175.0000000000,19.0000000000,67.0000000000,140.0000000000,233.0000000000,519.0000000000
1717675034828,174.0000000000,18.0000000000,67.0000000000,140.0000000000,231.0000000000,515.0000000000
1717675034829,173.0000000000,18.0000000000,67.0000000000,139.0000000000,231.0000000000,510.0000000000
1717675034829,172.0000000000,18.0000000000,66.0000000000,139.0000000000,229.0000000000,505.0000000000
1717675034829,171.0000000000,17.0000000000,65.0000000000,137.0000000000,227.0000000000,500.0000000000
1717675034829,169.0000000000,18.0000000000,65.0000000000,230.0000000000,226.0000000000,497.0000000000
1717675034829,167.0000000000,18.0000000000,65.0000000000,249.0000000000,224.0000000000,494.0000000000
1717675034829,167.0000000000,17.0000000000,64.0000000000,248.0000000000,223.0000000000,489.0000000000
1717675034829,166.0000000000,17.0000000000,63.0000000000,246.0000000000,222.0000000000,486.0000000000
1717675034829,165.0000000000,17.0000000000,63.0000000000,243.0000000000,220.0000000000,481.0000000000
1717675034829,163.0000000000,17.0000000000,63.0000000000,241.0000000000,220.0000000000,478.0000000000
1717675034829,163.0000000000,17.0000000000,63.0000000000,319.0000000000,217.0000000000,474.0000000000
1717675034829,161.0000000000,17.0000000000,62.0000000000,316.0000000000,216.0000000000,473.0000000000
1717675034830,171.0000000000,17.0000000000,62.0000000000,313.0000000000,215.0000000000,469.0000000000
1717675034830,175.0000000000,17.0000000000,62.0000000000,311.0000000000,214.0000000000,465.0000000000
1717675034830,174.0000000000,17.0000000000,61.0000000000,307.0000000000,227.0000000000,462.0000000000
1717675034830,172.0000000000,16.0000000000,61.0000000000,305.0000000000,225.0000000000,459.0000000000
1717675034857,171.0000000000,16.0000000000,60.0000000000,303.0000000000,224.0000000000,472.0000000000
1717675034858,170.0000000000,16.0000000000,60.0000000000,300.0000000000,221.0000000000,467.0000000000
1717675034858,167.0000000000,16.0000000000,59.0000000000,299.0000000000,220.0000000000,463.0000000000
1717675034858,167.0000000000,16.0000000000,59.0000000000,295.0000000000,217.0000000000,460.0000000000
1717675034858,166.0000000000,15.0000000000,59.0000000000,294.0000000000,216.0000000000,455.0000000000
1717675034858,164.0000000000,15.0000000000,58.0000000000,291.0000000000,215.0000000000,451.0000000000
1717675034858,163.0000000000,15.0000000000,58.0000000000,290.0000000000,214.0000000000,559.0000000000
1717675034859,287.0000000000,15.0000000000,57.0000000000,287.0000000000,212.0000000000,598.0000000000
1717675034859,282.0000000000,15.0000000000,57.0000000000,286.0000000000,211.0000000000,591.0000000000
1717675034859,280.0000000000,15.0000000000,56.0000000000,284.0000000000,209.0000000000,583.0000000000
1717675034859,278.0000000000,15.0000000000,56.0000000000,281.0000000000,207.0000000000,577.0000000000
1717675034859,275.0000000000,15.0000000000,56.0000000000,279.0000000000,207.0000000000,572.0000000000
1717675034859,273.0000000000,15.0000000000,56.0000000000,277.0000000000,206.0000000000,566.0000000000
1717675034859,271.0000000000,15.0000000000,55.0000000000,275.0000000000,204.0000000000,560.0000000000
1717675034859,269.0000000000,15.0000000000,55.0000000000,273.0000000000,203.0000000000,555.0000000000
1717675034874,267.0000000000,15.0000000000,55.0000000000,271.0000000000,201.0000000000,548.0000000000
1717675034877,265.0000000000,15.0000000000,55.0000000000,270.0000000000,200.0000000000,545.0000000000
1717675034877,263.0000000000,14.0000000000,54.0000000000,268.0000000000,199.0000000000,540.0000000000
1717675034878,261.0000000000,15.0000000000,54.0000000000,265.0000000000,198.0000000000,534.0000000000
1717675034878,259.0000000000,15.0000000000,53.0000000000,263.0000000000,197.0000000000,529.0000000000
1717675034878,257.0000000000,14.0000000000,52.0000000000,263.0000000000,195.0000000000,524.0000000000
1717675034879,255.0000000000,14.0000000000,52.0000000000,260.0000000000,260.0000000000,519.0000000000
1717675034879,254.0000000000,14.0000000000,51.0000000000,259.0000000000,257.0000000000,515.0000000000
1717675034880,252.0000000000,14.0000000000,51.0000000000,257.0000000000,255.0000000000,510.0000000000
1717675034880,250.0000000000,14.0000000000,51.0000000000,255.0000000000,254.0000000000,505.0000000000
1717675034881,248.0000000000,14.0000000000,51.0000000000,350.0000000000,252.0000000000,500.0000000000
1717675034881,246.0000000000,14.0000000000,51.0000000000,345.0000000000,249.0000000000,496.0000000000
1717675034899,244.0000000000,13.0000000000,50.0000000000,342.0000000000,248.0000000000,492.0000000000
1717675034900,243.0000000000,14.0000000000,50.0000000000,339.0000000000,246.0000000000,487.0000000000
1717675034900,241.0000000000,14.0000000000,50.0000000000,336.0000000000,244.0000000000,483.0000000000
1717675034900,240.0000000000,13.0000000000,49.0000000000,334.0000000000,243.0000000000,480.0000000000
1717675034900,238.0000000000,13.0000000000,49.0000000000,332.0000000000,241.0000000000,476.0000000000
1717675034900,237.0000000000,13.0000000000,49.0000000000,328.0000000000,239.0000000000,472.0000000000
1717675034900,235.0000000000,13.0000000000,49.0000000000,326.0000000000,237.0000000000,467.0000000000
1717675034900,233.0000000000,13.0000000000,49.0000000000,323.0000000000,236.0000000000,463.0000000000
1717675034900,231.0000000000,12.0000000000,48.0000000000,321.0000000000,233.0000000000,460.0000000000
1717675034915,231.0000000000,12.0000000000,48.0000000000,319.0000000000,233.0000000000,532.0000000000
1717675034916,337.0000000000,13.0000000000,48.0000000000,316.0000000000,231.0000000000,668.0000000000
1717675034916,345.0000000000,12.0000000000,47.0000000000,313.0000000000,230.0000000000,659.0000000000
1717675034916,342.0000000000,13.0000000000,47.0000000000,312.0000000000,228.0000000000,651.0000000000
1717675034916,339.0000000000,12.0000000000,47.0000000000,310.0000000000,227.0000000000,643.0000000000
1717675034916,335.0000000000,12.0000000000,47.0000000000,307.0000000000,225.0000000000,636.0000000000
1717675034916,333.0000000000,12.0000000000,49.0000000000,304.0000000000,224.0000000000,630.0000000000
1717675034916,331.0000000000,12.0000000000,49.0000000000,303.0000000000,222.0000000000,623.0000000000
1717675034931,327.0000000000,12.0000000000,49.0000000000,300.0000000000,220.0000000000,616.0000000000
1717675034931,324.0000000000,12.0000000000,48.0000000000,299.0000000000,219.0000000000,611.0000000000
1717675034932,323.0000000000,12.0000000000,48.0000000000,295.0000000000,217.0000000000,604.0000000000
1717675034932,319.0000000000,12.0000000000,48.0000000000,295.0000000000,216.0000000000,608.0000000000
1717675034932,318.0000000000,12.0000000000,47.0000000000,292.0000000000,215.0000000000,601.0000000000
1717675034932,315.0000000000,12.0000000000,47.0000000000,289.0000000000,214.0000000000,595.0000000000
1717675034932,312.0000000000,12.0000000000,47.0000000000,287.0000000000,211.0000000000,589.0000000000
1717675034932,311.0000000000,12.0000000000,46.0000000000,286.0000000000,211.0000000000,583.0000000000
1717675034948,308.0000000000,11.0000000000,46.0000000000,284.0000000000,209.0000000000,577.0000000000
1717675034949,305.0000000000,11.0000000000,46.0000000000,281.0000000000,207.0000000000,572.0000000000
1717675034949,304.0000000000,11.0000000000,46.0000000000,280.0000000000,207.0000000000,566.0000000000
1717675034949,301.0000000000,11.0000000000,45.0000000000,278.0000000000,206.0000000000,560.0000000000
1717675034949,300.0000000000,11.0000000000,45.0000000000,276.0000000000,204.0000000000,555.0000000000
1717675034950,297.0000000000,11.0000000000,45.0000000000,274.0000000000,203.0000000000,550.0000000000
1717675034950,295.0000000000,11.0000000000,44.0000000000,271.0000000000,201.0000000000,544.0000000000
1717675034950,293.0000000000,11.0000000000,44.0000000000,271.0000000000,199.0000000000,540.0000000000
1717675034950,291.0000000000,11.0000000000,44.0000000000,268.0000000000,199.0000000000,536.0000000000
1717675034968,289.0000000000,11.0000000000,43.0000000000,267.0000000000,198.0000000000,531.0000000000
1717675034969,287.0000000000,10.0000000000,43.0000000000,265.0000000000,196.0000000000,526.0000000000
1717675034970,284.0000000000,11.0000000000,43.0000000000,263.0000000000,195.0000000000,521.0000000000
1717675034970,283.0000000000,10.0000000000,43.0000000000,262.0000000000,194.0000000000,516.0000000000
1717675034970,281.0000000000,10.0000000000,43.0000000000,260.0000000000,193.0000000000,512.0000000000
1717675034970,280.0000000000,11.0000000000,41.0000000000,259.0000000000,192.0000000000,507.0000000000
1717675034970,277.0000000000,10.0000000000,41.0000000000,255.0000000000,192.0000000000,503.0000000000
1717675034970,275.0000000000,10.0000000000,41.0000000000,255.0000000000,190.0000000000,498.0000000000
1717675034970,273.0000000000,10.0000000000,41.0000000000,254.0000000000,189.0000000000,563.0000000000
1717675034970,271.0000000000,10.0000000000,41.0000000000,252.0000000000,188.0000000000,671.0000000000
1717675034987,270.0000000000,9.0000000000,41.0000000000,250.0000000000,187.0000000000,665.0000000000
1717675034987,268.0000000000,9.0000000000,41.0000000000,248.0000000000,185.0000000000,658.0000000000
1717675034987,267.0000000000,12.0000000000,39.0000000000,248.0000000000,185.0000000000,650.0000000000
1717675034988,263.0000000000,12.0000000000,39.0000000000,246.0000000000,184.0000000000,643.0000000000
1717675034988,263.0000000000,12.0000000000,39.0000000000,243.0000000000,183.0000000000,636.0000000000
1717675034988,260.0000000000,12.0000000000,39.0000000000,242.0000000000,182.0000000000,628.0000000000
1717675034988,259.0000000000,12.0000000000,39.0000000000,241.0000000000,180.0000000000,622.0000000000
1717675034988,257.0000000000,12.0000000000,39.0000000000,240.0000000000,180.0000000000,615.0000000000
1717675034988,255.0000000000,12.0000000000,39.0000000000,238.0000000000,179.0000000000,609.0000000000
1717675034988,254.0000000000,11.0000000000,39.0000000000,236.0000000000,178.0000000000,603.0000000000
1717675034989,252.0000000000,11.0000000000,39.0000000000,235.0000000000,177.0000000000,596.0000000000
1717675035005,251.0000000000,11.0000000000,39.0000000000,233.0000000000,176.0000000000,591.0000000000
1717675035005,249.0000000000,11.0000000000,38.0000000000,231.0000000000,175.0000000000,585.0000000000
1717675035005,248.0000000000,11.0000000000,38.0000000000,231.0000000000,174.0000000000,580.0000000000
1717675035006,247.0000000000,11.0000000000,51.0000000000,271.0000000000,173.0000000000,574.0000000000
1717675035006,244.0000000000,12.0000000000,51.0000000000,268.0000000000,172.0000000000,568.0000000000
1717675035006,243.0000000000,12.0000000000,50.0000000000,265.0000000000,171.0000000000,593.0000000000
1717675035006,241.0000000000,11.0000000000,50.0000000000,263.0000000000,170.0000000000,587.0000000000
1717675035006,240.0000000000,11.0000000000,49.0000000000,262.0000000000,169.0000000000,580.0000000000
1717675035022,239.0000000000,11.0000000000,49.0000000000,259.0000000000,167.0000000000,575.0000000000
1717675035023,237.0000000000,11.0000000000,48.0000000000,257.0000000000,167.0000000000,568.0000000000
1717675035023,236.0000000000,11.0000000000,48.0000000000,255.0000000000,167.0000000000,563.0000000000
1717675035023,234.0000000000,11.0000000000,48.0000000000,253.0000000000,166.0000000000,558.0000000000
1717675035023,231.0000000000,11.0000000000,48.0000000000,252.0000000000,164.0000000000,551.0000000000
1717675035023,231.0000000000,11.0000000000,48.0000000000,249.0000000000,163.0000000000,547.0000000000
1717675035023,230.0000000000,10.0000000000,47.0000000000,248.0000000000,163.0000000000,543.0000000000
1717675035024,227.0000000000,10.0000000000,47.0000000000,247.0000000000,162.0000000000,537.0000000000
1717675035024,227.0000000000,9.0000000000,47.0000000000,245.0000000000,161.0000000000,532.0000000000
1717675035024,225.0000000000,10.0000000000,46.0000000000,243.0000000000,159.0000000000,527.0000000000
1717675035024,224.0000000000,9.0000000000,46.0000000000,241.0000000000,159.0000000000,524.0000000000
1717675035038,223.0000000000,9.0000000000,46.0000000000,240.0000000000,159.0000000000,519.0000000000
1717675035039,222.0000000000,9.0000000000,45.0000000000,238.0000000000,158.0000000000,515.0000000000
1717675035039,220.0000000000,10.0000000000,44.0000000000,237.0000000000,156.0000000000,511.0000000000
1717675035039,219.0000000000,9.0000000000,45.0000000000,236.0000000000,156.0000000000,505.0000000000
1717675035039,217.0000000000,9.0000000000,44.0000000000,233.0000000000,156.0000000000,502.0000000000
1717675035039,216.0000000000,9.0000000000,44.0000000000,231.0000000000,155.0000000000,497.0000000000
1717675035054,215.0000000000,9.0000000000,44.0000000000,231.0000000000,153.0000000000,494.0000000000
1717675035055,213.0000000000,9.0000000000,44.0000000000,229.0000000000,153.0000000000,490.0000000000
1717675035055,212.0000000000,9.0000000000,44.0000000000,227.0000000000,152.0000000000,486.0000000000
1717675035055,211.0000000000,9.0000000000,44.0000000000,226.0000000000,194.0000000000,481.0000000000
1717675035055,210.0000000000,9.0000000000,43.0000000000,225.0000000000,192.0000000000,479.0000000000
1717675035055,209.0000000000,9.0000000000,42.0000000000,224.0000000000,191.0000000000,475.0000000000
1717675035055,207.0000000000,9.0000000000,42.0000000000,222.0000000000,189.0000000000,471.0000000000
1717675035055,206.0000000000,9.0000000000,41.0000000000,220.0000000000,188.0000000000,467.0000000000
1717675035056,205.0000000000,9.0000000000,41.0000000000,220.0000000000,187.0000000000,463.0000000000
1717675035072,204.0000000000,8.0000000000,41.0000000000,219.0000000000,185.0000000000,460.0000000000
1717675035074,203.0000000000,7.0000000000,41.0000000000,216.0000000000,184.0000000000,455.0000000000
1717675035075,201.0000000000,9.0000000000,41.0000000000,216.0000000000,184.0000000000,452.0000000000
1717675035075,199.0000000000,9.0000000000,41.0000000000,215.0000000000,182.0000000000,449.0000000000
1717675035075,199.0000000000,7.0000000000,39.0000000000,214.0000000000,180.0000000000,446.0000000000
1717675035075,199.0000000000,8.0000000000,39.0000000000,212.0000000000,179.0000000000,504.0000000000
1717675035076,197.0000000000,7.0000000000,39.0000000000,211.0000000000,179.0000000000,498.0000000000
1717675035076,196.0000000000,8.0000000000,39.0000000000,209.0000000000,177.0000000000,494.0000000000
1717675035076,195.0000000000,8.0000000000,39.0000000000,208.0000000000,176.0000000000,489.0000000000
1717675035077,193.0000000000,7.0000000000,39.0000000000,207.0000000000,175.0000000000,484.0000000000
1717675035077,192.0000000000,7.0000000000,39.0000000000,206.0000000000,187.0000000000,480.0000000000
1717675035104,192.0000000000,8.0000000000,39.0000000000,204.0000000000,230.0000000000,476.0000000000
1717675035104,191.0000000000,7.0000000000,39.0000000000,204.0000000000,227.0000000000,472.0000000000
1717675035104,189.0000000000,7.0000000000,38.0000000000,205.0000000000,225.0000000000,467.0000000000
1717675035105,188.0000000000,7.0000000000,38.0000000000,204.0000000000,224.0000000000,463.0000000000
1717675035105,188.0000000000,7.0000000000,38.0000000000,203.0000000000,224.0000000000,460.0000000000
1717675035105,186.0000000000,7.0000000000,38.0000000000,201.0000000000,251.0000000000,456.0000000000
1717675035105,185.0000000000,7.0000000000,37.0000000000,199.0000000000,248.0000000000,452.0000000000
1717675035105,184.0000000000,7.0000000000,36.0000000000,199.0000000000,248.0000000000,448.0000000000
1717675035105,184.0000000000,7.0000000000,36.0000000000,198.0000000000,246.0000000000,445.0000000000
1717675035105,183.0000000000,9.0000000000,54.0000000000,196.0000000000,243.0000000000,443.0000000000
1717675035105,182.0000000000,9.0000000000,59.0000000000,195.0000000000,241.0000000000,439.0000000000
1717675035105,180.0000000000,9.0000000000,58.0000000000,194.0000000000,240.0000000000,435.0000000000
1717675035105,179.0000000000,9.0000000000,58.0000000000,193.0000000000,239.0000000000,432.0000000000
1717675035105,178.0000000000,9.0000000000,57.0000000000,192.0000000000,237.0000000000,430.0000000000
1717675035106,177.0000000000,8.0000000000,57.0000000000,192.0000000000,235.0000000000,427.0000000000
1717675035121,176.0000000000,9.0000000000,56.0000000000,190.0000000000,233.0000000000,423.0000000000
1717675035122,176.0000000000,8.0000000000,56.0000000000,189.0000000000,231.0000000000,420.0000000000
