timestamp,Channel 1,Channel 2,Channel 3,Channel 4,Channel 5,Channel 6
1717675047704,37.0000000000,0.0000000000,3.0000000000,42.0000000000,190.0000000000,19.0000000000
1717675047706,37.0000000000,0.0000000000,3.0000000000,41.0000000000,188.0000000000,19.0000000000
1717675047707,36.0000000000,0.0000000000,2.0000000000,41.0000000000,187.0000000000,19.0000000000
1717675047707,36.0000000000,0.0000000000,3.0000000000,41.0000000000,187.0000000000,19.0000000000
1717675047707,36.0000000000,0.0000000000,3.0000000000,41.0000000000,185.0000000000,19.0000000000
1717675047707,36.0000000000,0.0000000000,2.0000000000,41.0000000000,184.0000000000,19.0000000000
1717675047708,36.0000000000,0.0000000000,3.0000000000,41.0000000000,184.0000000000,19.0000000000
1717675047708,35.0000000000,0.0000000000,3.0000000000,40.0000000000,183.0000000000,19.0000000000
1717675047708,35.0000000000,0.0000000000,3.0000000000,40.0000000000,182.0000000000,18.0000000000
1717675047708,35.0000000000,0.0000000000,3.0000000000,39.0000000000,180.0000000000,18.0000000000
1717675047708,35.0000000000,0.0000000000,2.0000000000,39.0000000000,180.0000000000,18.0000000000
1717675047709,35.0000000000,0.0000000000,3.0000000000,39.0000000000,179.0000000000,18.0000000000
1717675047709,35.0000000000,0.0000000000,3.0000000000,39.0000000000,178.0000000000,18.0000000000
1717675047709,35.0000000000,0.0000000000,3.0000000000,39.0000000000,177.0000000000,18.0000000000
1717675047709,34.0000000000,0.0000000000,3.0000000000,39.0000000000,177.0000000000,18.0000000000
1717675047709,34.0000000000,0.0000000000,3.0000000000,39.0000000000,176.0000000000,18.0000000000
1717675047709,33.0000000000,0.0000000000,2.0000000000,39.0000000000,175.0000000000,18.0000000000
1717675047710,34.0000000000,0.0000000000,3.0000000000,39.0000000000,174.0000000000,18.0000000000
1717675047710,34.0000000000,0.0000000000,3.0000000000,38.0000000000,174.0000000000,18.0000000000
1717675047710,34.0000000000,0.0000000000,3.0000000000,39.0000000000,172.0000000000,17.0000000000
1717675047710,34.0000000000,0.0000000000,3.0000000000,38.0000000000,172.0000000000,17.0000000000
1717675047710,33.0000000000,0.0000000000,3.0000000000,38.0000000000,171.0000000000,17.0000000000
1717675047710,33.0000000000,0.0000000000,3.0000000000,38.0000000000,170.0000000000,17.0000000000
1717675047711,33.0000000000,0.0000000000,3.0000000000,38.0000000000,169.0000000000,17.0000000000
1717675047732,33.0000000000,0.0000000000,3.0000000000,38.0000000000,167.0000000000,17.0000000000
1717675047733,33.0000000000,0.0000000000,3.0000000000,37.0000000000,167.0000000000,17.0000000000
1717675047734,32.0000000000,0.0000000000,3.0000000000,37.0000000000,167.0000000000,17.0000000000
1717675047734,32.0000000000,0.0000000000,2.0000000000,36.0000000000,166.0000000000,16.0000000000
1717675047734,32.0000000000,0.0000000000,3.0000000000,36.0000000000,165.0000000000,17.0000000000
1717675047734,31.0000000000,0.0000000000,3.0000000000,36.0000000000,164.0000000000,16.0000000000
1717675047735,31.0000000000,0.0000000000,3.0000000000,36.0000000000,163.0000000000,16.0000000000
1717675047735,31.0000000000,0.0000000000,3.0000000000,35.0000000000,163.0000000000,15.0000000000
1717675047735,31.0000000000,0.0000000000,3.0000000000,35.0000000000,162.0000000000,16.0000000000
1717675047735,31.0000000000,0.0000000000,3.0000000000,36.0000000000,161.0000000000,15.0000000000
1717675047735,31.0000000000,0.0000000000,2.0000000000,35.0000000000,160.0000000000,15.0000000000
1717675047736,31.0000000000,0.0000000000,2.0000000000,94.0000000000,159.0000000000,15.0000000000
1717675047736,31.0000000000,0.0000000000,3.0000000000,92.0000000000,226.0000000000,15.0000000000
1717675047736,31.0000000000,0.0000000000,2.0000000000,91.0000000000,235.0000000000,15.0000000000
1717675047736,31.0000000000,0.0000000000,2.0000000000,91.0000000000,233.0000000000,15.0000000000
1717675047736,30.0000000000,0.0000000000,3.0000000000,89.0000000000,231.0000000000,15.0000000000
1717675047762,30.0000000000,0.0000000000,2.0000000000,89.0000000000,231.0000000000,15.0000000000
1717675047763,31.0000000000,0.0000000000,2.0000000000,88.0000000000,228.0000000000,15.0000000000
1717675047763,30.0000000000,0.0000000000,2.0000000000,88.0000000000,227.0000000000,15.0000000000
1717675047763,30.0000000000,0.0000000000,2.0000000000,88.0000000000,225.0000000000,15.0000000000
1717675047763,30.0000000000,0.0000000000,2.0000000000,87.0000000000,225.0000000000,15.0000000000
1717675047764,30.0000000000,0.0000000000,5.0000000000,87.0000000000,224.0000000000,15.0000000000
1717675047764,29.0000000000,0.0000000000,6.0000000000,86.0000000000,222.0000000000,15.0000000000
1717675047764,30.0000000000,0.0000000000,5.0000000000,86.0000000000,220.0000000000,15.0000000000
1717675047764,29.0000000000,0.0000000000,5.0000000000,85.0000000000,220.0000000000,15.0000000000
1717675047764,30.0000000000,0.0000000000,5.0000000000,84.0000000000,219.0000000000,15.0000000000
1717675047764,29.0000000000,0.0000000000,6.0000000000,84.0000000000,217.0000000000,15.0000000000
1717675047765,28.0000000000,0.0000000000,5.0000000000,83.0000000000,216.0000000000,15.0000000000
1717675047765,29.0000000000,0.0000000000,5.0000000000,83.0000000000,216.0000000000,15.0000000000
1717675047765,28.0000000000,0.0000000000,4.0000000000,83.0000000000,214.0000000000,14.0000000000
1717675047765,29.0000000000,0.0000000000,5.0000000000,82.0000000000,213.0000000000,14.0000000000
1717675047766,28.0000000000,0.0000000000,5.0000000000,82.0000000000,212.0000000000,15.0000000000
1717675047767,28.0000000000,0.0000000000,5.0000000000,81.0000000000,210.0000000000,14.0000000000
1717675047767,28.0000000000,0.0000000000,5.0000000000,81.0000000000,209.0000000000,14.0000000000
1717675047767,28.0000000000,0.0000000000,4.0000000000,81.0000000000,207.0000000000,14.0000000000
1717675047800,28.0000000000,0.0000000000,5.0000000000,80.0000000000,207.0000000000,14.0000000000
1717675047801,28.0000000000,0.0000000000,5.0000000000,79.0000000000,206.0000000000,14.0000000000
1717675047801,28.0000000000,0.0000000000,6.0000000000,79.0000000000,205.0000000000,14.0000000000
1717675047801,28.0000000000,0.0000000000,6.0000000000,79.0000000000,204.0000000000,14.0000000000
1717675047801,27.0000000000,0.0000000000,5.0000000000,78.0000000000,203.0000000000,14.0000000000
1717675047802,28.0000000000,0.0000000000,5.0000000000,78.0000000000,202.0000000000,14.0000000000
1717675047802,28.0000000000,0.0000000000,5.0000000000,78.0000000000,201.0000000000,14.0000000000
1717675047802,27.0000000000,0.0000000000,5.0000000000,77.0000000000,199.0000000000,14.0000000000
1717675047802,27.0000000000,0.0000000000,5.0000000000,77.0000000000,199.0000000000,13.0000000000
1717675047802,27.0000000000,0.0000000000,5.0000000000,76.0000000000,198.0000000000,14.0000000000
1717675047802,27.0000000000,0.0000000000,4.0000000000,76.0000000000,197.0000000000,13.0000000000
1717675047802,26.0000000000,0.0000000000,5.0000000000,76.0000000000,195.0000000000,14.0000000000
1717675047803,27.0000000000,0.0000000000,5.0000000000,76.0000000000,195.0000000000,13.0000000000
1717675047803,26.0000000000,0.0000000000,5.0000000000,75.0000000000,194.0000000000,13.0000000000
1717675047803,26.0000000000,0.0000000000,5.0000000000,75.0000000000,193.0000000000,13.0000000000
1717675047803,26.0000000000,0.0000000000,4.0000000000,74.0000000000,192.0000000000,13.0000000000
1717675047803,26.0000000000,0.0000000000,5.0000000000,74.0000000000,192.0000000000,13.0000000000
1717675047803,25.0000000000,0.0000000000,4.0000000000,73.0000000000,190.0000000000,13.0000000000
1717675047803,25.0000000000,0.0000000000,3.0000000000,72.0000000000,189.0000000000,13.0000000000
1717675047803,25.0000000000,0.0000000000,4.0000000000,71.0000000000,189.0000000000,12.0000000000
1717675047803,25.0000000000,0.0000000000,4.0000000000,71.0000000000,188.0000000000,13.0000000000
1717675047803,25.0000000000,0.0000000000,4.0000000000,71.0000000000,187.0000000000,13.0000000000
1717675047804,24.0000000000,0.0000000000,4.0000000000,71.0000000000,186.0000000000,12.0000000000
1717675047804,24.0000000000,0.0000000000,4.0000000000,71.0000000000,185.0000000000,12.0000000000
1717675047823,25.0000000000,0.0000000000,4.0000000000,71.0000000000,184.0000000000,12.0000000000
1717675047824,24.0000000000,0.0000000000,4.0000000000,70.0000000000,184.0000000000,12.0000000000
1717675047825,24.0000000000,0.0000000000,4.0000000000,70.0000000000,182.0000000000,12.0000000000
1717675047825,24.0000000000,0.0000000000,4.0000000000,70.0000000000,182.0000000000,12.0000000000
1717675047825,24.0000000000,0.0000000000,4.0000000000,70.0000000000,180.0000000000,12.0000000000
1717675047825,24.0000000000,0.0000000000,4.0000000000,68.0000000000,179.0000000000,12.0000000000
1717675047826,24.0000000000,0.0000000000,3.0000000000,68.0000000000,179.0000000000,12.0000000000
1717675047826,24.0000000000,0.0000000000,4.0000000000,67.0000000000,177.0000000000,12.0000000000
1717675047826,24.0000000000,0.0000000000,4.0000000000,68.0000000000,177.0000000000,12.0000000000
1717675047826,24.0000000000,0.0000000000,3.0000000000,67.0000000000,176.0000000000,12.0000000000
1717675047826,24.0000000000,0.0000000000,3.0000000000,67.0000000000,176.0000000000,12.0000000000
1717675047827,24.0000000000,0.0000000000,4.0000000000,67.0000000000,175.0000000000,12.0000000000
1717675047827,24.0000000000,0.0000000000,4.0000000000,66.0000000000,174.0000000000,12.0000000000
1717675047827,23.0000000000,0.0000000000,4.0000000000,66.0000000000,173.0000000000,12.0000000000
1717675047827,24.0000000000,0.0000000000,4.0000000000,66.0000000000,172.0000000000,11.0000000000
1717675047828,23.0000000000,0.0000000000,3.0000000000,65.0000000000,172.0000000000,12.0000000000
1717675047862,24.0000000000,0.0000000000,4.0000000000,65.0000000000,170.0000000000,12.0000000000
1717675047863,23.0000000000,0.0000000000,4.0000000000,65.0000000000,169.0000000000,11.0000000000
1717675047863,23.0000000000,0.0000000000,4.0000000000,64.0000000000,168.0000000000,12.0000000000
1717675047864,23.0000000000,0.0000000000,4.0000000000,80.0000000000,167.0000000000,11.0000000000
1717675047864,22.0000000000,0.0000000000,4.0000000000,139.0000000000,167.0000000000,11.0000000000
1717675047864,22.0000000000,0.0000000000,3.0000000000,137.0000000000,167.0000000000,11.0000000000
1717675047864,22.0000000000,0.0000000000,3.0000000000,135.0000000000,165.0000000000,11.0000000000
1717675047864,22.0000000000,0.0000000000,4.0000000000,135.0000000000,165.0000000000,11.0000000000
1717675047865,22.0000000000,0.0000000000,3.0000000000,134.0000000000,163.0000000000,11.0000000000
1717675047865,22.0000000000,0.0000000000,3.0000000000,133.0000000000,163.0000000000,11.0000000000
1717675047865,22.0000000000,0.0000000000,4.0000000000,132.0000000000,162.0000000000,11.0000000000
1717675047865,22.0000000000,0.0000000000,3.0000000000,131.0000000000,161.0000000000,11.0000000000
1717675047866,22.0000000000,0.0000000000,3.0000000000,131.0000000000,161.0000000000,10.0000000000
1717675047866,22.0000000000,0.0000000000,4.0000000000,129.0000000000,159.0000000000,10.0000000000
1717675047867,22.0000000000,0.0000000000,3.0000000000,129.0000000000,159.0000000000,10.0000000000
1717675047867,21.0000000000,0.0000000000,4.0000000000,129.0000000000,158.0000000000,9.0000000000
1717675047867,22.0000000000,0.0000000000,3.0000000000,127.0000000000,158.0000000000,11.0000000000
1717675047868,20.0000000000,0.0000000000,3.0000000000,127.0000000000,157.0000000000,11.0000000000
1717675047868,21.0000000000,0.0000000000,3.0000000000,126.0000000000,156.0000000000,10.0000000000
1717675047868,21.0000000000,0.0000000000,3.0000000000,126.0000000000,156.0000000000,10.0000000000
1717675047868,20.0000000000,0.0000000000,3.0000000000,125.0000000000,155.0000000000,10.0000000000
1717675047869,20.0000000000,0.0000000000,3.0000000000,124.0000000000,154.0000000000,9.0000000000
1717675047869,20.0000000000,0.0000000000,3.0000000000,124.0000000000,153.0000000000,10.0000000000
1717675047869,20.0000000000,0.0000000000,3.0000000000,123.0000000000,152.0000000000,9.0000000000
1717675047870,20.0000000000,0.0000000000,3.0000000000,122.0000000000,152.0000000000,10.0000000000
1717675047870,20.0000000000,0.0000000000,3.0000000000,121.0000000000,151.0000000000,9.0000000000
1717675047870,19.0000000000,0.0000000000,3.0000000000,121.0000000000,150.0000000000,9.0000000000
1717675047871,19.0000000000,0.0000000000,3.0000000000,120.0000000000,150.0000000000,9.0000000000
1717675047888,20.0000000000,0.0000000000,3.0000000000,120.0000000000,149.0000000000,9.0000000000
1717675047888,20.0000000000,0.0000000000,3.0000000000,119.0000000000,148.0000000000,9.0000000000
1717675047888,19.0000000000,0.0000000000,3.0000000000,118.0000000000,148.0000000000,9.0000000000
1717675047889,19.0000000000,0.0000000000,3.0000000000,118.0000000000,147.0000000000,9.0000000000
1717675047889,19.0000000000,0.0000000000,3.0000000000,117.0000000000,146.0000000000,9.0000000000
1717675047889,19.0000000000,0.0000000000,3.0000000000,116.0000000000,145.0000000000,9.0000000000
1717675047889,19.0000000000,0.0000000000,3.0000000000,116.0000000000,145.0000000000,9.0000000000
1717675047889,19.0000000000,0.0000000000,3.0000000000,115.0000000000,144.0000000000,9.0000000000
1717675047890,19.0000000000,0.0000000000,3.0000000000,115.0000000000,143.0000000000,9.0000000000
1717675047890,19.0000000000,0.0000000000,3.0000000000,114.0000000000,204.0000000000,9.0000000000
1717675047890,19.0000000000,0.0000000000,3.0000000000,113.0000000000,201.0000000000,9.0000000000
1717675047911,19.0000000000,0.0000000000,3.0000000000,113.0000000000,199.0000000000,8.0000000000
1717675047912,19.0000000000,0.0000000000,3.0000000000,112.0000000000,199.0000000000,8.0000000000
1717675047912,19.0000000000,0.0000000000,3.0000000000,112.0000000000,199.0000000000,8.0000000000
1717675047912,20.0000000000,0.0000000000,3.0000000000,111.0000000000,198.0000000000,9.0000000000
1717675047913,20.0000000000,0.0000000000,3.0000000000,110.0000000000,195.0000000000,7.0000000000
1717675047913,20.0000000000,0.0000000000,3.0000000000,110.0000000000,195.0000000000,9.0000000000
1717675047913,20.0000000000,0.0000000000,3.0000000000,109.0000000000,194.0000000000,7.0000000000
1717675047913,20.0000000000,0.0000000000,3.0000000000,109.0000000000,193.0000000000,7.0000000000
1717675047914,20.0000000000,0.0000000000,3.0000000000,108.0000000000,192.0000000000,7.0000000000
1717675047914,19.0000000000,0.0000000000,3.0000000000,108.0000000000,191.0000000000,7.0000000000
1717675047914,19.0000000000,0.0000000000,3.0000000000,107.0000000000,190.0000000000,7.0000000000
1717675047914,19.0000000000,0.0000000000,3.0000000000,107.0000000000,188.0000000000,8.0000000000
1717675047915,19.0000000000,0.0000000000,3.0000000000,107.0000000000,188.0000000000,8.0000000000
1717675047915,19.0000000000,0.0000000000,3.0000000000,105.0000000000,187.0000000000,7.0000000000
1717675047915,19.0000000000,0.0000000000,3.0000000000,105.0000000000,185.0000000000,8.0000000000
1717675047916,19.0000000000,0.0000000000,3.0000000000,104.0000000000,184.0000000000,7.0000000000
1717675047916,19.0000000000,0.0000000000,3.0000000000,103.0000000000,184.0000000000,8.0000000000
1717675047916,19.0000000000,0.0000000000,3.0000000000,103.0000000000,184.0000000000,7.0000000000
1717675047916,19.0000000000,0.0000000000,2.0000000000,103.0000000000,183.0000000000,7.0000000000
1717675047932,19.0000000000,0.0000000000,3.0000000000,103.0000000000,181.0000000000,7.0000000000
1717675047933,18.0000000000,0.0000000000,2.0000000000,102.0000000000,180.0000000000,7.0000000000
1717675047933,18.0000000000,0.0000000000,3.0000000000,102.0000000000,179.0000000000,7.0000000000
1717675047933,19.0000000000,0.0000000000,3.0000000000,101.0000000000,179.0000000000,7.0000000000
1717675047933,18.0000000000,0.0000000000,3.0000000000,100.0000000000,177.0000000000,7.0000000000
1717675047933,19.0000000000,0.0000000000,3.0000000000,99.0000000000,176.0000000000,7.0000000000
1717675047933,18.0000000000,0.0000000000,3.0000000000,99.0000000000,176.0000000000,7.0000000000
1717675047934,19.0000000000,0.0000000000,3.0000000000,99.0000000000,175.0000000000,7.0000000000
1717675047934,18.0000000000,0.0000000000,3.0000000000,98.0000000000,175.0000000000,7.0000000000
1717675047934,18.0000000000,0.0000000000,3.0000000000,98.0000000000,174.0000000000,7.0000000000
1717675047934,18.0000000000,0.0000000000,3.0000000000,98.0000000000,172.0000000000,7.0000000000
1717675047950,18.0000000000,0.0000000000,3.0000000000,97.0000000000,172.0000000000,7.0000000000
1717675047951,17.0000000000,0.0000000000,2.0000000000,97.0000000000,171.0000000000,7.0000000000
1717675047952,18.0000000000,0.0000000000,3.0000000000,96.0000000000,169.0000000000,7.0000000000
1717675047952,17.0000000000,0.0000000000,3.0000000000,96.0000000000,169.0000000000,7.0000000000
1717675047952,17.0000000000,0.0000000000,3.0000000000,95.0000000000,167.0000000000,7.0000000000
1717675047952,17.0000000000,0.0000000000,2.0000000000,95.0000000000,167.0000000000,7.0000000000
1717675047952,17.0000000000,0.0000000000,2.0000000000,94.0000000000,167.0000000000,7.0000000000
1717675047952,17.0000000000,0.0000000000,2.0000000000,94.0000000000,166.0000000000,7.0000000000
1717675047953,17.0000000000,0.0000000000,3.0000000000,94.0000000000,166.0000000000,7.0000000000
1717675047953,17.0000000000,0.0000000000,2.0000000000,94.0000000000,165.0000000000,7.0000000000
1717675047953,17.0000000000,0.0000000000,3.0000000000,92.0000000000,163.0000000000,7.0000000000
1717675047953,17.0000000000,0.0000000000,3.0000000000,92.0000000000,163.0000000000,7.0000000000
1717675047953,17.0000000000,0.0000000000,3.0000000000,92.0000000000,163.0000000000,7.0000000000
1717675047953,17.0000000000,0.0000000000,3.0000000000,92.0000000000,161.0000000000,7.0000000000
1717675047972,17.0000000000,0.0000000000,2.0000000000,91.0000000000,160.0000000000,7.0000000000
1717675047972,17.0000000000,0.0000000000,2.0000000000,91.0000000000,159.0000000000,7.0000000000
1717675047973,16.0000000000,0.0000000000,2.0000000000,91.0000000000,159.0000000000,7.0000000000
1717675047973,16.0000000000,0.0000000000,2.0000000000,89.0000000000,159.0000000000,7.0000000000
1717675047973,16.0000000000,0.0000000000,2.0000000000,89.0000000000,158.0000000000,7.0000000000
1717675047973,16.0000000000,0.0000000000,2.0000000000,89.0000000000,158.0000000000,7.0000000000
1717675047973,15.0000000000,0.0000000000,2.0000000000,89.0000000000,157.0000000000,7.0000000000
1717675047973,16.0000000000,0.0000000000,2.0000000000,88.0000000000,156.0000000000,7.0000000000
1717675047974,16.0000000000,0.0000000000,2.0000000000,88.0000000000,155.0000000000,7.0000000000
1717675047974,16.0000000000,0.0000000000,2.0000000000,88.0000000000,155.0000000000,7.0000000000
1717675047974,16.0000000000,0.0000000000,2.0000000000,87.0000000000,154.0000000000,7.0000000000
1717675047974,15.0000000000,0.0000000000,2.0000000000,87.0000000000,153.0000000000,7.0000000000
1717675047974,15.0000000000,0.0000000000,2.0000000000,86.0000000000,152.0000000000,7.0000000000
1717675047974,15.0000000000,0.0000000000,2.0000000000,86.0000000000,152.0000000000,7.0000000000
1717675047994,15.0000000000,0.0000000000,2.0000000000,85.0000000000,152.0000000000,6.0000000000
1717675047996,15.0000000000,0.0000000000,2.0000000000,84.0000000000,151.0000000000,6.0000000000
1717675047996,15.0000000000,0.0000000000,2.0000000000,85.0000000000,150.0000000000,7.0000000000
1717675047996,15.0000000000,0.0000000000,2.0000000000,83.0000000000,149.0000000000,7.0000000000
1717675047997,15.0000000000,0.0000000000,2.0000000000,83.0000000000,148.0000000000,7.0000000000
1717675047997,15.0000000000,0.0000000000,2.0000000000,83.0000000000,148.0000000000,6.0000000000
1717675047998,15.0000000000,0.0000000000,2.0000000000,83.0000000000,161.0000000000,7.0000000000
1717675047998,15.0000000000,0.0000000000,2.0000000000,83.0000000000,160.0000000000,6.0000000000
1717675048000,15.0000000000,0.0000000000,3.0000000000,82.0000000000,159.0000000000,6.0000000000
1717675048000,15.0000000000,0.0000000000,3.0000000000,82.0000000000,159.0000000000,6.0000000000
1717675048001,15.0000000000,0.0000000000,3.0000000000,81.0000000000,158.0000000000,6.0000000000
1717675048001,15.0000000000,0.0000000000,2.0000000000,81.0000000000,157.0000000000,6.0000000000
1717675048002,15.0000000000,0.0000000000,2.0000000000,81.0000000000,156.0000000000,6.0000000000
1717675048003,15.0000000000,0.0000000000,2.0000000000,80.0000000000,156.0000000000,6.0000000000
1717675048004,15.0000000000,0.0000000000,2.0000000000,79.0000000000,155.0000000000,6.0000000000
1717675048004,15.0000000000,0.0000000000,3.0000000000,79.0000000000,153.0000000000,6.0000000000
1717675048005,15.0000000000,0.0000000000,3.0000000000,79.0000000000,153.0000000000,6.0000000000
1717675048005,15.0000000000,0.0000000000,2.0000000000,79.0000000000,152.0000000000,6.0000000000
1717675048005,15.0000000000,0.0000000000,3.0000000000,79.0000000000,152.0000000000,6.0000000000
1717675048006,15.0000000000,0.0000000000,2.0000000000,78.0000000000,151.0000000000,6.0000000000
1717675048006,14.0000000000,0.0000000000,2.0000000000,78.0000000000,150.0000000000,6.0000000000
1717675048006,14.0000000000,0.0000000000,2.0000000000,77.0000000000,149.0000000000,6.0000000000
1717675048006,14.0000000000,0.0000000000,3.0000000000,77.0000000000,148.0000000000,6.0000000000
1717675048023,15.0000000000,0.0000000000,3.0000000000,76.0000000000,148.0000000000,6.0000000000
1717675048024,14.0000000000,0.0000000000,3.0000000000,76.0000000000,147.0000000000,5.0000000000
1717675048024,14.0000000000,0.0000000000,3.0000000000,76.0000000000,192.0000000000,6.0000000000
1717675048025,17.0000000000,0.0000000000,3.0000000000,76.0000000000,191.0000000000,6.0000000000
1717675048025,18.0000000000,0.0000000000,3.0000000000,76.0000000000,190.0000000000,5.0000000000
1717675048025,18.0000000000,0.0000000000,3.0000000000,76.0000000000,188.0000000000,6.0000000000
1717675048025,18.0000000000,0.0000000000,3.0000000000,75.0000000000,188.0000000000,6.0000000000
1717675048025,17.0000000000,0.0000000000,3.0000000000,74.0000000000,187.0000000000,6.0000000000
1717675048026,17.0000000000,0.0000000000,3.0000000000,73.0000000000,186.0000000000,5.0000000000
1717675048026,17.0000000000,0.0000000000,3.0000000000,73.0000000000,185.0000000000,5.0000000000
1717675048026,17.0000000000,0.0000000000,3.0000000000,73.0000000000,184.0000000000,5.0000000000
1717675048026,17.0000000000,0.0000000000,3.0000000000,73.0000000000,184.0000000000,6.0000000000
1717675048026,17.0000000000,0.0000000000,3.0000000000,73.0000000000,182.0000000000,5.0000000000
1717675048026,17.0000000000,0.0000000000,3.0000000000,71.0000000000,181.0000000000,4.0000000000
1717675048040,17.0000000000,0.0000000000,3.0000000000,71.0000000000,180.0000000000,6.0000000000
1717675048041,17.0000000000,0.0000000000,3.0000000000,71.0000000000,179.0000000000,5.0000000000
1717675048041,17.0000000000,0.0000000000,3.0000000000,71.0000000000,178.0000000000,6.0000000000
1717675048042,17.0000000000,0.0000000000,3.0000000000,71.0000000000,177.0000000000,5.0000000000
1717675048042,17.0000000000,0.0000000000,3.0000000000,71.0000000000,177.0000000000,5.0000000000
1717675048042,17.0000000000,0.0000000000,3.0000000000,71.0000000000,176.0000000000,5.0000000000
1717675048042,17.0000000000,0.0000000000,2.0000000000,70.0000000000,175.0000000000,5.0000000000
1717675048042,17.0000000000,0.0000000000,2.0000000000,70.0000000000,174.0000000000,5.0000000000
1717675048043,17.0000000000,0.0000000000,2.0000000000,70.0000000000,174.0000000000,5.0000000000
1717675048043,17.0000000000,0.0000000000,3.0000000000,69.0000000000,172.0000000000,5.0000000000
1717675048043,17.0000000000,0.0000000000,2.0000000000,68.0000000000,172.0000000000,5.0000000000
1717675048060,16.0000000000,0.0000000000,3.0000000000,69.0000000000,171.0000000000,4.0000000000
1717675048060,16.0000000000,0.0000000000,3.0000000000,68.0000000000,169.0000000000,5.0000000000
1717675048060,16.0000000000,0.0000000000,3.0000000000,67.0000000000,169.0000000000,4.0000000000
1717675048061,16.0000000000,0.0000000000,3.0000000000,68.0000000000,167.0000000000,5.0000000000
1717675048061,16.0000000000,0.0000000000,3.0000000000,67.0000000000,167.0000000000,4.0000000000
1717675048061,16.0000000000,0.0000000000,3.0000000000,67.0000000000,167.0000000000,5.0000000000
1717675048061,15.0000000000,0.0000000000,3.0000000000,67.0000000000,166.0000000000,4.0000000000
1717675048061,16.0000000000,0.0000000000,3.0000000000,67.0000000000,165.0000000000,4.0000000000
1717675048062,16.0000000000,0.0000000000,3.0000000000,65.0000000000,164.0000000000,4.0000000000
1717675048062,16.0000000000,0.0000000000,3.0000000000,66.0000000000,163.0000000000,4.0000000000
1717675048062,16.0000000000,0.0000000000,3.0000000000,65.0000000000,163.0000000000,4.0000000000
1717675048062,15.0000000000,0.0000000000,3.0000000000,65.0000000000,162.0000000000,4.0000000000
1717675048062,16.0000000000,0.0000000000,3.0000000000,65.0000000000,161.0000000000,4.0000000000
1717675048062,16.0000000000,0.0000000000,3.0000000000,64.0000000000,160.0000000000,4.0000000000
1717675048087,15.0000000000,0.0000000000,3.0000000000,64.0000000000,159.0000000000,4.0000000000
1717675048088,15.0000000000,0.0000000000,3.0000000000,63.0000000000,159.0000000000,4.0000000000
1717675048088,15.0000000000,0.0000000000,4.0000000000,63.0000000000,158.0000000000,4.0000000000
1717675048088,15.0000000000,0.0000000000,3.0000000000,63.0000000000,157.0000000000,4.0000000000
1717675048088,15.0000000000,0.0000000000,3.0000000000,63.0000000000,156.0000000000,4.0000000000
1717675048089,15.0000000000,0.0000000000,3.0000000000,63.0000000000,156.0000000000,4.0000000000
1717675048089,15.0000000000,0.0000000000,3.0000000000,62.0000000000,156.0000000000,4.0000000000
1717675048089,15.0000000000,0.0000000000,3.0000000000,62.0000000000,155.0000000000,3.0000000000
1717675048090,15.0000000000,0.0000000000,3.0000000000,62.0000000000,153.0000000000,4.0000000000
1717675048090,15.0000000000,0.0000000000,3.0000000000,62.0000000000,152.0000000000,3.0000000000
1717675048090,15.0000000000,0.0000000000,3.0000000000,62.0000000000,153.0000000000,4.0000000000
1717675048090,15.0000000000,0.0000000000,3.0000000000,61.0000000000,152.0000000000,4.0000000000
1717675048090,15.0000000000,0.0000000000,3.0000000000,61.0000000000,151.0000000000,4.0000000000
1717675048090,15.0000000000,0.0000000000,3.0000000000,60.0000000000,150.0000000000,3.0000000000
1717675048090,14.0000000000,0.0000000000,3.0000000000,60.0000000000,150.0000000000,3.0000000000
1717675048091,15.0000000000,0.0000000000,3.0000000000,60.0000000000,149.0000000000,4.0000000000
1717675048091,14.0000000000,0.0000000000,3.0000000000,60.0000000000,148.0000000000,3.0000000000
1717675048091,15.0000000000,0.0000000000,3.0000000000,60.0000000000,147.0000000000,4.0000000000
1717675048091,15.0000000000,0.0000000000,3.0000000000,59.0000000000,147.0000000000,4.0000000000
1717675048092,14.0000000000,0.0000000000,3.0000000000,59.0000000000,147.0000000000,3.0000000000
1717675048109,14.0000000000,0.0000000000,3.0000000000,59.0000000000,146.0000000000,4.0000000000
1717675048111,23.0000000000,0.0000000000,3.0000000000,59.0000000000,145.0000000000,4.0000000000
1717675048112,23.0000000000,0.0000000000,3.0000000000,59.0000000000,169.0000000000,4.0000000000
1717675048113,23.0000000000,0.0000000000,3.0000000000,58.0000000000,167.0000000000,3.0000000000
1717675048114,22.0000000000,0.0000000000,3.0000000000,57.0000000000,167.0000000000,3.0000000000
1717675048115,22.0000000000,0.0000000000,3.0000000000,57.0000000000,166.0000000000,3.0000000000
1717675048115,22.0000000000,0.0000000000,3.0000000000,57.0000000000,165.0000000000,3.0000000000
1717675048116,22.0000000000,0.0000000000,3.0000000000,57.0000000000,164.0000000000,3.0000000000
1717675048117,22.0000000000,0.0000000000,4.0000000000,57.0000000000,163.0000000000,3.0000000000
1717675048117,21.0000000000,0.0000000000,4.0000000000,56.0000000000,163.0000000000,3.0000000000
1717675048118,21.0000000000,0.0000000000,3.0000000000,56.0000000000,161.0000000000,3.0000000000
1717675048119,21.0000000000,0.0000000000,3.0000000000,56.0000000000,161.0000000000,6.0000000000
1717675048120,22.0000000000,0.0000000000,3.0000000000,56.0000000000,160.0000000000,6.0000000000
1717675048121,22.0000000000,0.0000000000,3.0000000000,56.0000000000,159.0000000000,6.0000000000
1717675048122,20.0000000000,0.0000000000,3.0000000000,56.0000000000,159.0000000000,5.0000000000
1717675048122,20.0000000000,0.0000000000,3.0000000000,55.0000000000,158.0000000000,4.0000000000
1717675048123,21.0000000000,0.0000000000,3.0000000000,55.0000000000,157.0000000000,4.0000000000
1717675048124,20.0000000000,0.0000000000,3.0000000000,55.0000000000,156.0000000000,4.0000000000
1717675048124,20.0000000000,0.0000000000,3.0000000000,54.0000000000,156.0000000000,4.0000000000
1717675048125,20.0000000000,0.0000000000,3.0000000000,54.0000000000,155.0000000000,5.0000000000
1717675048126,20.0000000000,0.0000000000,3.0000000000,54.0000000000,153.0000000000,5.0000000000
1717675048126,20.0000000000,0.0000000000,3.0000000000,54.0000000000,153.0000000000,5.0000000000
1717675048127,19.0000000000,0.0000000000,4.0000000000,54.0000000000,152.0000000000,5.0000000000
1717675048128,19.0000000000,0.0000000000,3.0000000000,53.0000000000,152.0000000000,4.0000000000
1717675048129,19.0000000000,0.0000000000,3.0000000000,53.0000000000,152.0000000000,5.0000000000
1717675048129,19.0000000000,0.0000000000,3.0000000000,52.0000000000,151.0000000000,4.0000000000
1717675048158,19.0000000000,0.0000000000,3.0000000000,130.0000000000,150.0000000000,5.0000000000
1717675048161,20.0000000000,0.0000000000,3.0000000000,129.0000000000,149.0000000000,5.0000000000
1717675048162,21.0000000000,0.0000000000,3.0000000000,127.0000000000,147.0000000000,4.0000000000
1717675048162,20.0000000000,0.0000000000,3.0000000000,127.0000000000,147.0000000000,4.0000000000
1717675048163,20.0000000000,0.0000000000,3.0000000000,126.0000000000,147.0000000000,4.0000000000
1717675048164,20.0000000000,0.0000000000,3.0000000000,125.0000000000,192.0000000000,7.0000000000
1717675048164,19.0000000000,0.0000000000,3.0000000000,125.0000000000,191.0000000000,7.0000000000
1717675048165,20.0000000000,0.0000000000,3.0000000000,124.0000000000,190.0000000000,7.0000000000
1717675048165,19.0000000000,0.0000000000,3.0000000000,123.0000000000,188.0000000000,7.0000000000
1717675048165,19.0000000000,0.0000000000,3.0000000000,123.0000000000,188.0000000000,7.0000000000
1717675048166,19.0000000000,0.0000000000,3.0000000000,121.0000000000,187.0000000000,7.0000000000
1717675048166,19.0000000000,0.0000000000,3.0000000000,121.0000000000,185.0000000000,7.0000000000
1717675048166,19.0000000000,0.0000000000,3.0000000000,120.0000000000,184.0000000000,7.0000000000
1717675048167,19.0000000000,0.0000000000,3.0000000000,120.0000000000,184.0000000000,7.0000000000
1717675048167,19.0000000000,0.0000000000,3.0000000000,119.0000000000,183.0000000000,7.0000000000
1717675048167,19.0000000000,0.0000000000,3.0000000000,119.0000000000,182.0000000000,7.0000000000
1717675048167,19.0000000000,0.0000000000,3.0000000000,118.0000000000,181.0000000000,7.0000000000
1717675048167,19.0000000000,0.0000000000,3.0000000000,116.0000000000,180.0000000000,7.0000000000
1717675048167,19.0000000000,0.0000000000,3.0000000000,116.0000000000,178.0000000000,7.0000000000
1717675048167,19.0000000000,0.0000000000,3.0000000000,115.0000000000,177.0000000000,7.0000000000
1717675048168,19.0000000000,0.0000000000,3.0000000000,115.0000000000,177.0000000000,7.0000000000
1717675048168,18.0000000000,0.0000000000,3.0000000000,115.0000000000,176.0000000000,7.0000000000
1717675048168,18.0000000000,0.0000000000,3.0000000000,114.0000000000,175.0000000000,7.0000000000
1717675048168,19.0000000000,0.0000000000,3.0000000000,113.0000000000,174.0000000000,7.0000000000
1717675048184,18.0000000000,0.0000000000,3.0000000000,112.0000000000,173.0000000000,7.0000000000
1717675048185,18.0000000000,0.0000000000,3.0000000000,112.0000000000,172.0000000000,7.0000000000
1717675048185,18.0000000000,0.0000000000,3.0000000000,111.0000000000,172.0000000000,6.0000000000
1717675048185,18.0000000000,0.0000000000,3.0000000000,111.0000000000,171.0000000000,7.0000000000
1717675048186,18.0000000000,0.0000000000,3.0000000000,111.0000000000,169.0000000000,7.0000000000
1717675048186,17.0000000000,0.0000000000,3.0000000000,110.0000000000,169.0000000000,6.0000000000
1717675048186,17.0000000000,0.0000000000,3.0000000000,109.0000000000,167.0000000000,7.0000000000
1717675048186,17.0000000000,0.0000000000,3.0000000000,108.0000000000,167.0000000000,7.0000000000
1717675048186,17.0000000000,0.0000000000,3.0000000000,108.0000000000,167.0000000000,7.0000000000
1717675048186,17.0000000000,0.0000000000,3.0000000000,108.0000000000,166.0000000000,7.0000000000
1717675048186,17.0000000000,0.0000000000,3.0000000000,107.0000000000,164.0000000000,6.0000000000
1717675048187,17.0000000000,0.0000000000,3.0000000000,106.0000000000,164.0000000000,6.0000000000
1717675048187,17.0000000000,0.0000000000,3.0000000000,106.0000000000,163.0000000000,6.0000000000
1717675048205,17.0000000000,0.0000000000,3.0000000000,105.0000000000,162.0000000000,6.0000000000
1717675048207,17.0000000000,0.0000000000,3.0000000000,105.0000000000,161.0000000000,6.0000000000
1717675048208,17.0000000000,0.0000000000,3.0000000000,103.0000000000,160.0000000000,6.0000000000
1717675048209,17.0000000000,0.0000000000,3.0000000000,103.0000000000,159.0000000000,9.0000000000
1717675048209,16.0000000000,0.0000000000,3.0000000000,103.0000000000,159.0000000000,12.0000000000
1717675048210,16.0000000000,0.0000000000,3.0000000000,103.0000000000,158.0000000000,18.0000000000
1717675048211,16.0000000000,0.0000000000,3.0000000000,102.0000000000,157.0000000000,22.0000000000
1717675048211,16.0000000000,0.0000000000,3.0000000000,102.0000000000,156.0000000000,21.0000000000
1717675048211,16.0000000000,0.0000000000,3.0000000000,101.0000000000,156.0000000000,21.0000000000
1717675048212,16.0000000000,0.0000000000,3.0000000000,100.0000000000,155.0000000000,21.0000000000
1717675048212,15.0000000000,0.0000000000,3.0000000000,100.0000000000,153.0000000000,20.0000000000
1717675048212,15.0000000000,0.0000000000,3.0000000000,99.0000000000,153.0000000000,20.0000000000
1717675048212,16.0000000000,0.0000000000,3.0000000000,99.0000000000,152.0000000000,20.0000000000
1717675048212,15.0000000000,0.0000000000,3.0000000000,98.0000000000,152.0000000000,20.0000000000
1717675048212,15.0000000000,0.0000000000,3.0000000000,98.0000000000,152.0000000000,53.0000000000
1717675048212,15.0000000000,0.0000000000,3.0000000000,97.0000000000,151.0000000000,52.0000000000
1717675048227,15.0000000000,0.0000000000,3.0000000000,97.0000000000,150.0000000000,52.0000000000
1717675048227,15.0000000000,0.0000000000,2.0000000000,96.0000000000,149.0000000000,51.0000000000
1717675048228,15.0000000000,0.0000000000,2.0000000000,96.0000000000,148.0000000000,51.0000000000
1717675048228,15.0000000000,0.0000000000,3.0000000000,96.0000000000,147.0000000000,51.0000000000
1717675048228,15.0000000000,0.0000000000,3.0000000000,95.0000000000,147.0000000000,51.0000000000
1717675048229,15.0000000000,0.0000000000,3.0000000000,95.0000000000,146.0000000000,50.0000000000
1717675048229,15.0000000000,0.0000000000,2.0000000000,94.0000000000,145.0000000000,50.0000000000
1717675048229,15.0000000000,0.0000000000,2.0000000000,94.0000000000,145.0000000000,49.0000000000
1717675048229,15.0000000000,0.0000000000,3.0000000000,93.0000000000,144.0000000000,52.0000000000
1717675048229,15.0000000000,0.0000000000,3.0000000000,92.0000000000,143.0000000000,52.0000000000
1717675048230,15.0000000000,0.0000000000,3.0000000000,92.0000000000,143.0000000000,51.0000000000
1717675048248,15.0000000000,0.0000000000,3.0000000000,92.0000000000,142.0000000000,51.0000000000
1717675048249,14.0000000000,0.0000000000,3.0000000000,92.0000000000,141.0000000000,51.0000000000
1717675048249,14.0000000000,0.0000000000,3.0000000000,91.0000000000,140.0000000000,51.0000000000
1717675048250,15.0000000000,0.0000000000,3.0000000000,91.0000000000,140.0000000000,50.0000000000
1717675048250,14.0000000000,0.0000000000,3.0000000000,90.0000000000,140.0000000000,50.0000000000
1717675048250,14.0000000000,0.0000000000,3.0000000000,89.0000000000,139.0000000000,49.0000000000
1717675048250,14.0000000000,0.0000000000,3.0000000000,88.0000000000,138.0000000000,49.0000000000
1717675048250,14.0000000000,0.0000000000,3.0000000000,89.0000000000,137.0000000000,49.0000000000
1717675048251,14.0000000000,0.0000000000,3.0000000000,88.0000000000,136.0000000000,49.0000000000
1717675048251,14.0000000000,0.0000000000,3.0000000000,88.0000000000,135.0000000000,48.0000000000
1717675048251,14.0000000000,0.0000000000,3.0000000000,88.0000000000,135.0000000000,48.0000000000
1717675048251,14.0000000000,0.0000000000,3.0000000000,87.0000000000,135.0000000000,48.0000000000
1717675048252,14.0000000000,0.0000000000,3.0000000000,87.0000000000,135.0000000000,48.0000000000
1717675048252,14.0000000000,0.0000000000,3.0000000000,86.0000000000,134.0000000000,48.0000000000
1717675048252,14.0000000000,0.0000000000,3.0000000000,86.0000000000,133.0000000000,48.0000000000
1717675048252,14.0000000000,0.0000000000,3.0000000000,85.0000000000,132.0000000000,47.0000000000
1717675048273,14.0000000000,0.0000000000,3.0000000000,84.0000000000,132.0000000000,47.0000000000
1717675048273,13.0000000000,0.0000000000,3.0000000000,84.0000000000,132.0000000000,46.0000000000
1717675048274,14.0000000000,0.0000000000,3.0000000000,83.0000000000,131.0000000000,47.0000000000
1717675048274,13.0000000000,0.0000000000,3.0000000000,83.0000000000,131.0000000000,46.0000000000
1717675048274,14.0000000000,0.0000000000,3.0000000000,83.0000000000,129.0000000000,46.0000000000
1717675048274,13.0000000000,0.0000000000,3.0000000000,83.0000000000,129.0000000000,46.0000000000
1717675048274,13.0000000000,0.0000000000,3.0000000000,82.0000000000,128.0000000000,45.0000000000
1717675048274,13.0000000000,0.0000000000,3.0000000000,82.0000000000,127.0000000000,45.0000000000
1717675048275,13.0000000000,0.0000000000,3.0000000000,81.0000000000,127.0000000000,45.0000000000
1717675048275,13.0000000000,0.0000000000,3.0000000000,81.0000000000,127.0000000000,45.0000000000
1717675048275,13.0000000000,0.0000000000,3.0000000000,80.0000000000,127.0000000000,44.0000000000
1717675048275,13.0000000000,0.0000000000,3.0000000000,80.0000000000,135.0000000000,44.0000000000
1717675048275,12.0000000000,0.0000000000,3.0000000000,79.0000000000,137.0000000000,44.0000000000
1717675048296,12.0000000000,0.0000000000,3.0000000000,114.0000000000,244.0000000000,44.0000000000
1717675048297,13.0000000000,0.0000000000,3.0000000000,113.0000000000,271.0000000000,44.0000000000
1717675048297,12.0000000000,0.0000000000,3.0000000000,112.0000000000,270.0000000000,44.0000000000
1717675048297,12.0000000000,0.0000000000,3.0000000000,112.0000000000,268.0000000000,43.0000000000
1717675048297,12.0000000000,0.0000000000,3.0000000000,111.0000000000,266.0000000000,43.0000000000
1717675048297,12.0000000000,0.0000000000,3.0000000000,110.0000000000,263.0000000000,43.0000000000
1717675048298,12.0000000000,0.0000000000,3.0000000000,110.0000000000,263.0000000000,43.0000000000
1717675048298,12.0000000000,0.0000000000,3.0000000000,109.0000000000,261.0000000000,42.0000000000
1717675048298,12.0000000000,0.0000000000,5.0000000000,108.0000000000,259.0000000000,42.0000000000
1717675048299,12.0000000000,0.0000000000,5.0000000000,108.0000000000,257.0000000000,42.0000000000
1717675048299,12.0000000000,0.0000000000,5.0000000000,108.0000000000,255.0000000000,41.0000000000
1717675048299,12.0000000000,0.0000000000,5.0000000000,107.0000000000,255.0000000000,41.0000000000
1717675048299,12.0000000000,0.0000000000,5.0000000000,105.0000000000,253.0000000000,41.0000000000
1717675048300,12.0000000000,0.0000000000,5.0000000000,104.0000000000,252.0000000000,41.0000000000
1717675048300,11.0000000000,0.0000000000,5.0000000000,103.0000000000,251.0000000000,41.0000000000
1717675048300,12.0000000000,0.0000000000,4.0000000000,103.0000000000,249.0000000000,39.0000000000
1717675048300,12.0000000000,0.0000000000,4.0000000000,103.0000000000,248.0000000000,39.0000000000
1717675048300,11.0000000000,0.0000000000,4.0000000000,103.0000000000,246.0000000000,39.0000000000
1717675048317,11.0000000000,0.0000000000,5.0000000000,103.0000000000,246.0000000000,50.0000000000
1717675048317,11.0000000000,0.0000000000,5.0000000000,101.0000000000,287.0000000000,49.0000000000
1717675048318,11.0000000000,0.0000000000,4.0000000000,101.0000000000,286.0000000000,49.0000000000
1717675048318,11.0000000000,0.0000000000,4.0000000000,100.0000000000,283.0000000000,48.0000000000
1717675048318,12.0000000000,0.0000000000,4.0000000000,100.0000000000,281.0000000000,48.0000000000
1717675048318,11.0000000000,0.0000000000,4.0000000000,99.0000000000,280.0000000000,48.0000000000
1717675048318,11.0000000000,0.0000000000,4.0000000000,99.0000000000,278.0000000000,48.0000000000
1717675048318,11.0000000000,0.0000000000,4.0000000000,98.0000000000,276.0000000000,47.0000000000
1717675048319,11.0000000000,0.0000000000,4.0000000000,98.0000000000,318.0000000000,47.0000000000
1717675048319,11.0000000000,0.0000000000,4.0000000000,97.0000000000,315.0000000000,47.0000000000
1717675048341,11.0000000000,0.0000000000,4.0000000000,97.0000000000,312.0000000000,47.0000000000
1717675048342,11.0000000000,0.0000000000,4.0000000000,97.0000000000,311.0000000000,47.0000000000
1717675048342,11.0000000000,0.0000000000,6.0000000000,96.0000000000,308.0000000000,46.0000000000
1717675048343,11.0000000000,0.0000000000,16.0000000000,96.0000000000,306.0000000000,46.0000000000
1717675048343,11.0000000000,1.0000000000,17.0000000000,95.0000000000,304.0000000000,46.0000000000
1717675048343,11.0000000000,0.0000000000,17.0000000000,94.0000000000,303.0000000000,45.0000000000
1717675048343,10.0000000000,0.0000000000,17.0000000000,94.0000000000,300.0000000000,45.0000000000
1717675048343,11.0000000000,0.0000000000,16.0000000000,94.0000000000,299.0000000000,45.0000000000
1717675048343,11.0000000000,1.0000000000,16.0000000000,93.0000000000,296.0000000000,44.0000000000
1717675048344,10.0000000000,0.0000000000,15.0000000000,92.0000000000,295.0000000000,44.0000000000
1717675048344,10.0000000000,0.0000000000,16.0000000000,92.0000000000,293.0000000000,44.0000000000
1717675048344,11.0000000000,0.0000000000,15.0000000000,92.0000000000,291.0000000000,44.0000000000
1717675048344,10.0000000000,1.0000000000,15.0000000000,91.0000000000,289.0000000000,44.0000000000
1717675048344,10.0000000000,0.0000000000,15.0000000000,91.0000000000,287.0000000000,44.0000000000
1717675048344,10.0000000000,0.0000000000,15.0000000000,90.0000000000,287.0000000000,43.0000000000
1717675048344,10.0000000000,0.0000000000,15.0000000000,89.0000000000,284.0000000000,43.0000000000
1717675048345,9.0000000000,1.0000000000,15.0000000000,89.0000000000,283.0000000000,43.0000000000
1717675048345,10.0000000000,0.0000000000,15.0000000000,88.0000000000,281.0000000000,68.0000000000
1717675048362,9.0000000000,0.0000000000,15.0000000000,90.0000000000,280.0000000000,70.0000000000
1717675048362,9.0000000000,0.0000000000,15.0000000000,105.0000000000,279.0000000000,69.0000000000
1717675048363,9.0000000000,0.0000000000,15.0000000000,152.0000000000,277.0000000000,68.0000000000
1717675048363,9.0000000000,1.0000000000,15.0000000000,150.0000000000,275.0000000000,67.0000000000
1717675048363,9.0000000000,0.0000000000,15.0000000000,149.0000000000,273.0000000000,67.0000000000
1717675048363,9.0000000000,0.0000000000,15.0000000000,147.0000000000,271.0000000000,67.0000000000
1717675048363,9.0000000000,0.0000000000,14.0000000000,147.0000000000,271.0000000000,67.0000000000
1717675048364,9.0000000000,0.0000000000,15.0000000000,146.0000000000,284.0000000000,66.0000000000
1717675048364,9.0000000000,0.0000000000,15.0000000000,145.0000000000,289.0000000000,65.0000000000
1717675048364,9.0000000000,0.0000000000,15.0000000000,143.0000000000,287.0000000000,65.0000000000
1717675048380,9.0000000000,0.0000000000,15.0000000000,143.0000000000,285.0000000000,65.0000000000
1717675048381,9.0000000000,0.0000000000,14.0000000000,142.0000000000,283.0000000000,64.0000000000
1717675048382,9.0000000000,0.0000000000,15.0000000000,142.0000000000,281.0000000000,63.0000000000
1717675048382,9.0000000000,0.0000000000,15.0000000000,141.0000000000,280.0000000000,63.0000000000
1717675048382,9.0000000000,0.0000000000,15.0000000000,140.0000000000,278.0000000000,63.0000000000
1717675048382,9.0000000000,0.0000000000,14.0000000000,140.0000000000,276.0000000000,63.0000000000
1717675048383,9.0000000000,0.0000000000,14.0000000000,139.0000000000,275.0000000000,63.0000000000
1717675048383,7.0000000000,0.0000000000,14.0000000000,137.0000000000,273.0000000000,108.0000000000
1717675048383,8.0000000000,0.0000000000,14.0000000000,136.0000000000,271.0000000000,107.0000000000
1717675048383,7.0000000000,0.0000000000,14.0000000000,135.0000000000,270.0000000000,105.0000000000
1717675048383,7.0000000000,0.0000000000,14.0000000000,135.0000000000,268.0000000000,105.0000000000
1717675048383,7.0000000000,0.0000000000,14.0000000000,134.0000000000,267.0000000000,104.0000000000
1717675048384,8.0000000000,0.0000000000,14.0000000000,134.0000000000,265.0000000000,103.0000000000
1717675048398,8.0000000000,0.0000000000,14.0000000000,133.0000000000,263.0000000000,103.0000000000
1717675048399,8.0000000000,0.0000000000,14.0000000000,132.0000000000,262.0000000000,102.0000000000
1717675048399,8.0000000000,0.0000000000,14.0000000000,131.0000000000,260.0000000000,102.0000000000
1717675048399,8.0000000000,0.0000000000,14.0000000000,131.0000000000,259.0000000000,101.0000000000
1717675048399,8.0000000000,0.0000000000,14.0000000000,163.0000000000,257.0000000000,100.0000000000
1717675048399,7.0000000000,0.0000000000,14.0000000000,162.0000000000,255.0000000000,100.0000000000
1717675048399,7.0000000000,0.0000000000,13.0000000000,161.0000000000,255.0000000000,99.0000000000
1717675048400,7.0000000000,0.0000000000,13.0000000000,159.0000000000,254.0000000000,99.0000000000
1717675048400,7.0000000000,0.0000000000,13.0000000000,159.0000000000,252.0000000000,99.0000000000
1717675048416,7.0000000000,0.0000000000,13.0000000000,158.0000000000,251.0000000000,98.0000000000
1717675048417,7.0000000000,0.0000000000,13.0000000000,156.0000000000,249.0000000000,97.0000000000
1717675048417,7.0000000000,0.0000000000,13.0000000000,156.0000000000,248.0000000000,97.0000000000
1717675048417,7.0000000000,0.0000000000,13.0000000000,155.0000000000,248.0000000000,96.0000000000
1717675048417,7.0000000000,0.0000000000,12.0000000000,154.0000000000,246.0000000000,96.0000000000
1717675048417,7.0000000000,0.0000000000,12.0000000000,153.0000000000,244.0000000000,95.0000000000
1717675048417,7.0000000000,0.0000000000,12.0000000000,152.0000000000,243.0000000000,94.0000000000
1717675048418,7.0000000000,0.0000000000,12.0000000000,152.0000000000,243.0000000000,94.0000000000
1717675048418,7.0000000000,0.0000000000,12.0000000000,151.0000000000,250.0000000000,94.0000000000
1717675048418,7.0000000000,0.0000000000,12.0000000000,150.0000000000,249.0000000000,93.0000000000
1717675048418,7.0000000000,0.0000000000,12.0000000000,148.0000000000,248.0000000000,92.0000000000
1717675048418,7.0000000000,0.0000000000,12.0000000000,147.0000000000,246.0000000000,92.0000000000
1717675048418,7.0000000000,0.0000000000,12.0000000000,147.0000000000,244.0000000000,91.0000000000
1717675048459,7.0000000000,0.0000000000,12.0000000000,146.0000000000,243.0000000000,91.0000000000
1717675048459,7.0000000000,0.0000000000,12.0000000000,145.0000000000,241.0000000000,97.0000000000
1717675048459,7.0000000000,0.0000000000,12.0000000000,145.0000000000,240.0000000000,137.0000000000
1717675048459,7.0000000000,0.0000000000,13.0000000000,143.0000000000,239.0000000000,135.0000000000
1717675048459,7.0000000000,0.0000000000,12.0000000000,143.0000000000,238.0000000000,135.0000000000
1717675048460,7.0000000000,0.0000000000,12.0000000000,143.0000000000,236.0000000000,134.0000000000
1717675048460,7.0000000000,0.0000000000,12.0000000000,142.0000000000,235.0000000000,133.0000000000
1717675048460,7.0000000000,0.0000000000,12.0000000000,140.0000000000,233.0000000000,131.0000000000
1717675048460,7.0000000000,0.0000000000,12.0000000000,140.0000000000,233.0000000000,195.0000000000
1717675048460,7.0000000000,0.0000000000,12.0000000000,139.0000000000,231.0000000000,192.0000000000
1717675048460,7.0000000000,0.0000000000,12.0000000000,139.0000000000,230.0000000000,191.0000000000
1717675048460,7.0000000000,0.0000000000,12.0000000000,137.0000000000,229.0000000000,189.0000000000
1717675048460,7.0000000000,0.0000000000,12.0000000000,136.0000000000,227.0000000000,188.0000000000
1717675048460,7.0000000000,0.0000000000,12.0000000000,135.0000000000,227.0000000000,187.0000000000
1717675048460,7.0000000000,0.0000000000,12.0000000000,135.0000000000,282.0000000000,185.0000000000
1717675048460,7.0000000000,0.0000000000,12.0000000000,135.0000000000,307.0000000000,184.0000000000
1717675048461,7.0000000000,0.0000000000,12.0000000000,134.0000000000,306.0000000000,183.0000000000
1717675048461,7.0000000000,0.0000000000,12.0000000000,133.0000000000,303.0000000000,182.0000000000
1717675048461,7.0000000000,0.0000000000,12.0000000000,132.0000000000,301.0000000000,180.0000000000
1717675048461,7.0000000000,0.0000000000,12.0000000000,131.0000000000,299.0000000000,179.0000000000
1717675048461,7.0000000000,0.0000000000,12.0000000000,131.0000000000,297.0000000000,179.0000000000
1717675048461,7.0000000000,0.0000000000,12.0000000000,174.0000000000,295.0000000000,177.0000000000
1717675048461,7.0000000000,0.0000000000,11.0000000000,172.0000000000,293.0000000000,176.0000000000
1717675048461,7.0000000000,0.0000000000,12.0000000000,170.0000000000,291.0000000000,176.0000000000
1717675048480,7.0000000000,0.0000000000,11.0000000000,169.0000000000,289.0000000000,175.0000000000
1717675048481,7.0000000000,0.0000000000,11.0000000000,167.0000000000,302.0000000000,174.0000000000
1717675048481,7.0000000000,0.0000000000,11.0000000000,167.0000000000,300.0000000000,172.0000000000
1717675048481,6.0000000000,0.0000000000,11.0000000000,166.0000000000,298.0000000000,171.0000000000
1717675048481,6.0000000000,0.0000000000,11.0000000000,165.0000000000,295.0000000000,170.0000000000
1717675048481,6.0000000000,0.0000000000,11.0000000000,163.0000000000,294.0000000000,169.0000000000
1717675048482,7.0000000000,0.0000000000,11.0000000000,162.0000000000,291.0000000000,167.0000000000
1717675048482,7.0000000000,0.0000000000,11.0000000000,161.0000000000,290.0000000000,167.0000000000
1717675048483,7.0000000000,0.0000000000,11.0000000000,160.0000000000,288.0000000000,167.0000000000
1717675048483,7.0000000000,0.0000000000,10.0000000000,159.0000000000,286.0000000000,166.0000000000
1717675048483,6.0000000000,0.0000000000,11.0000000000,159.0000000000,284.0000000000,165.0000000000
1717675048483,6.0000000000,0.0000000000,10.0000000000,158.0000000000,284.0000000000,163.0000000000
1717675048500,6.0000000000,0.0000000000,10.0000000000,156.0000000000,281.0000000000,163.0000000000
1717675048502,6.0000000000,0.0000000000,9.0000000000,156.0000000000,280.0000000000,162.0000000000
1717675048502,6.0000000000,0.0000000000,10.0000000000,155.0000000000,278.0000000000,161.0000000000
1717675048503,6.0000000000,0.0000000000,10.0000000000,154.0000000000,276.0000000000,159.0000000000
1717675048503,6.0000000000,0.0000000000,9.0000000000,153.0000000000,275.0000000000,159.0000000000
1717675048503,6.0000000000,0.0000000000,9.0000000000,152.0000000000,273.0000000000,159.0000000000
1717675048503,6.0000000000,0.0000000000,9.0000000000,152.0000000000,271.0000000000,158.0000000000
1717675048504,6.0000000000,0.0000000000,10.0000000000,151.0000000000,301.0000000000,157.0000000000
1717675048504,6.0000000000,0.0000000000,10.0000000000,150.0000000000,315.0000000000,156.0000000000
1717675048504,6.0000000000,0.0000000000,9.0000000000,149.0000000000,312.0000000000,163.0000000000
1717675048505,6.0000000000,0.0000000000,9.0000000000,148.0000000000,311.0000000000,224.0000000000
1717675048505,5.0000000000,0.0000000000,9.0000000000,147.0000000000,308.0000000000,222.0000000000
1717675048505,6.0000000000,0.0000000000,9.0000000000,146.0000000000,306.0000000000,220.0000000000
1717675048505,6.0000000000,0.0000000000,9.0000000000,145.0000000000,304.0000000000,219.0000000000
1717675048506,6.0000000000,0.0000000000,9.0000000000,145.0000000000,302.0000000000,217.0000000000
1717675048526,6.0000000000,0.0000000000,9.0000000000,143.0000000000,300.0000000000,216.0000000000
1717675048527,6.0000000000,0.0000000000,9.0000000000,143.0000000000,299.0000000000,215.0000000000
1717675048527,5.0000000000,0.0000000000,9.0000000000,143.0000000000,295.0000000000,214.0000000000
1717675048527,6.0000000000,0.0000000000,9.0000000000,148.0000000000,295.0000000000,212.0000000000
1717675048527,5.0000000000,0.0000000000,9.0000000000,147.0000000000,293.0000000000,211.0000000000
1717675048527,6.0000000000,0.0000000000,8.0000000000,146.0000000000,291.0000000000,209.0000000000
1717675048527,6.0000000000,0.0000000000,9.0000000000,145.0000000000,289.0000000000,208.0000000000
1717675048528,5.0000000000,0.0000000000,8.0000000000,144.0000000000,287.0000000000,207.0000000000
1717675048528,5.0000000000,0.0000000000,7.0000000000,143.0000000000,287.0000000000,206.0000000000
1717675048528,5.0000000000,5.0000000000,9.0000000000,143.0000000000,285.0000000000,205.0000000000
1717675048528,5.0000000000,5.0000000000,9.0000000000,142.0000000000,283.0000000000,204.0000000000
1717675048528,5.0000000000,4.0000000000,9.0000000000,141.0000000000,281.0000000000,203.0000000000
1717675048528,5.0000000000,4.0000000000,9.0000000000,140.0000000000,280.0000000000,201.0000000000
1717675048542,5.0000000000,4.0000000000,9.0000000000,140.0000000000,279.0000000000,199.0000000000
1717675048543,5.0000000000,4.0000000000,9.0000000000,139.0000000000,277.0000000000,288.0000000000
1717675048543,5.0000000000,4.0000000000,9.0000000000,138.0000000000,275.0000000000,318.0000000000
1717675048543,5.0000000000,4.0000000000,9.0000000000,137.0000000000,273.0000000000,316.0000000000
1717675048543,4.0000000000,4.0000000000,9.0000000000,137.0000000000,274.0000000000,312.0000000000
1717675048543,4.0000000000,5.0000000000,9.0000000000,135.0000000000,272.0000000000,311.0000000000
1717675048543,5.0000000000,4.0000000000,9.0000000000,135.0000000000,271.0000000000,309.0000000000
1717675048544,4.0000000000,4.0000000000,9.0000000000,135.0000000000,270.0000000000,306.0000000000
1717675048544,5.0000000000,4.0000000000,9.0000000000,134.0000000000,268.0000000000,305.0000000000
1717675048544,5.0000000000,4.0000000000,9.0000000000,134.0000000000,266.0000000000,303.0000000000
1717675048564,4.0000000000,4.0000000000,7.0000000000,133.0000000000,264.0000000000,300.0000000000
1717675048567,4.0000000000,4.0000000000,8.0000000000,132.0000000000,263.0000000000,299.0000000000
1717675048567,4.0000000000,4.0000000000,7.0000000000,131.0000000000,262.0000000000,297.0000000000
1717675048568,5.0000000000,4.0000000000,8.0000000000,131.0000000000,259.0000000000,295.0000000000
1717675048568,4.0000000000,4.0000000000,8.0000000000,130.0000000000,259.0000000000,294.0000000000
1717675048569,4.0000000000,4.0000000000,8.0000000000,129.0000000000,257.0000000000,291.0000000000
1717675048569,4.0000000000,3.0000000000,8.0000000000,128.0000000000,255.0000000000,290.0000000000
1717675048569,4.0000000000,4.0000000000,7.0000000000,127.0000000000,255.0000000000,287.0000000000
1717675048570,4.0000000000,4.0000000000,7.0000000000,127.0000000000,253.0000000000,287.0000000000
1717675048570,4.0000000000,3.0000000000,7.0000000000,127.0000000000,252.0000000000,284.0000000000
1717675048571,4.0000000000,3.0000000000,7.0000000000,126.0000000000,251.0000000000,283.0000000000
1717675048571,4.0000000000,3.0000000000,7.0000000000,126.0000000000,249.0000000000,281.0000000000
1717675048573,4.0000000000,3.0000000000,7.0000000000,125.0000000000,248.0000000000,280.0000000000
1717675048573,4.0000000000,3.0000000000,7.0000000000,124.0000000000,247.0000000000,278.0000000000
1717675048574,4.0000000000,4.0000000000,7.0000000000,124.0000000000,246.0000000000,276.0000000000
1717675048574,4.0000000000,3.0000000000,7.0000000000,123.0000000000,243.0000000000,275.0000000000
1717675048575,3.0000000000,3.0000000000,7.0000000000,123.0000000000,243.0000000000,273.0000000000
1717675048575,4.0000000000,3.0000000000,7.0000000000,121.0000000000,241.0000000000,271.0000000000
1717675048576,4.0000000000,3.0000000000,7.0000000000,121.0000000000,241.0000000000,270.0000000000
1717675048576,4.0000000000,3.0000000000,7.0000000000,120.0000000000,239.0000000000,269.0000000000
1717675048599,3.0000000000,3.0000000000,7.0000000000,123.0000000000,238.0000000000,268.0000000000
1717675048600,4.0000000000,3.0000000000,7.0000000000,211.0000000000,237.0000000000,265.0000000000
1717675048600,4.0000000000,3.0000000000,7.0000000000,209.0000000000,236.0000000000,263.0000000000
1717675048600,3.0000000000,3.0000000000,7.0000000000,207.0000000000,235.0000000000,263.0000000000
1717675048600,4.0000000000,3.0000000000,7.0000000000,207.0000000000,232.0000000000,262.0000000000
1717675048601,4.0000000000,3.0000000000,7.0000000000,205.0000000000,231.0000000000,260.0000000000
1717675048601,4.0000000000,3.0000000000,7.0000000000,204.0000000000,231.0000000000,259.0000000000
1717675048601,3.0000000000,3.0000000000,7.0000000000,203.0000000000,230.0000000000,257.0000000000
1717675048601,3.0000000000,3.0000000000,7.0000000000,201.0000000000,228.0000000000,255.0000000000
1717675048602,4.0000000000,3.0000000000,7.0000000000,199.0000000000,227.0000000000,255.0000000000
1717675048602,3.0000000000,3.0000000000,7.0000000000,199.0000000000,226.0000000000,253.0000000000
1717675048602,4.0000000000,3.0000000000,7.0000000000,198.0000000000,225.0000000000,252.0000000000
1717675048602,4.0000000000,3.0000000000,7.0000000000,196.0000000000,224.0000000000,251.0000000000
1717675048602,4.0000000000,3.0000000000,7.0000000000,196.0000000000,223.0000000000,249.0000000000
1717675048602,3.0000000000,3.0000000000,7.0000000000,195.0000000000,222.0000000000,248.0000000000
1717675048602,3.0000000000,3.0000000000,7.0000000000,193.0000000000,220.0000000000,247.0000000000
1717675048603,3.0000000000,3.0000000000,7.0000000000,192.0000000000,219.0000000000,245.0000000000
1717675048603,4.0000000000,3.0000000000,9.0000000000,192.0000000000,218.0000000000,244.0000000000
1717675048625,3.0000000000,3.0000000000,9.0000000000,190.0000000000,217.0000000000,243.0000000000
1717675048626,3.0000000000,3.0000000000,10.0000000000,190.0000000000,216.0000000000,286.0000000000
1717675048627,3.0000000000,3.0000000000,9.0000000000,188.0000000000,259.0000000000,284.0000000000
1717675048627,3.0000000000,3.0000000000,9.0000000000,187.0000000000,339.0000000000,281.0000000000
1717675048627,3.0000000000,3.0000000000,9.0000000000,185.0000000000,335.0000000000,280.0000000000
1717675048627,3.0000000000,3.0000000000,9.0000000000,184.0000000000,332.0000000000,278.0000000000
1717675048628,3.0000000000,3.0000000000,9.0000000000,184.0000000000,330.0000000000,276.0000000000
1717675048628,3.0000000000,3.0000000000,9.0000000000,183.0000000000,327.0000000000,275.0000000000
1717675048628,3.0000000000,2.0000000000,9.0000000000,182.0000000000,326.0000000000,273.0000000000
1717675048628,3.0000000000,3.0000000000,9.0000000000,180.0000000000,323.0000000000,271.0000000000
1717675048629,3.0000000000,3.0000000000,9.0000000000,180.0000000000,321.0000000000,270.0000000000
1717675048629,3.0000000000,3.0000000000,9.0000000000,179.0000000000,319.0000000000,268.0000000000
1717675048629,3.0000000000,3.0000000000,9.0000000000,177.0000000000,318.0000000000,266.0000000000
1717675048629,3.0000000000,3.0000000000,9.0000000000,177.0000000000,316.0000000000,265.0000000000
1717675048630,3.0000000000,3.0000000000,9.0000000000,207.0000000000,313.0000000000,263.0000000000
1717675048648,3.0000000000,3.0000000000,9.0000000000,204.0000000000,312.0000000000,262.0000000000
1717675048649,3.0000000000,3.0000000000,8.0000000000,203.0000000000,310.0000000000,305.0000000000
1717675048649,15.0000000000,3.0000000000,9.0000000000,201.0000000000,307.0000000000,307.0000000000
1717675048650,15.0000000000,2.0000000000,8.0000000000,200.0000000000,394.0000000000,304.0000000000
1717675048650,15.0000000000,3.0000000000,9.0000000000,199.0000000000,388.0000000000,302.0000000000
1717675048650,15.0000000000,3.0000000000,7.0000000000,199.0000000000,385.0000000000,300.0000000000
1717675048650,15.0000000000,3.0000000000,8.0000000000,197.0000000000,384.0000000000,297.0000000000
1717675048651,15.0000000000,3.0000000000,7.0000000000,195.0000000000,380.0000000000,295.0000000000
1717675048651,14.0000000000,3.0000000000,8.0000000000,195.0000000000,377.0000000000,294.0000000000
1717675048651,15.0000000000,2.0000000000,14.0000000000,193.0000000000,374.0000000000,291.0000000000
1717675048651,14.0000000000,3.0000000000,22.0000000000,192.0000000000,371.0000000000,289.0000000000
1717675048652,14.0000000000,2.0000000000,21.0000000000,191.0000000000,369.0000000000,287.0000000000
1717675048652,14.0000000000,3.0000000000,21.0000000000,190.0000000000,366.0000000000,286.0000000000
1717675048652,14.0000000000,3.0000000000,21.0000000000,188.0000000000,364.0000000000,284.0000000000
1717675048675,14.0000000000,2.0000000000,20.0000000000,188.0000000000,359.0000000000,283.0000000000
1717675048677,14.0000000000,2.0000000000,20.0000000000,186.0000000000,359.0000000000,280.0000000000
1717675048678,14.0000000000,3.0000000000,20.0000000000,185.0000000000,355.0000000000,280.0000000000
1717675048678,14.0000000000,3.0000000000,20.0000000000,184.0000000000,353.0000000000,277.0000000000
1717675048679,13.0000000000,2.0000000000,20.0000000000,182.0000000000,351.0000000000,275.0000000000
1717675048679,13.0000000000,2.0000000000,19.0000000000,182.0000000000,348.0000000000,273.0000000000
1717675048680,13.0000000000,2.0000000000,20.0000000000,180.0000000000,347.0000000000,271.0000000000
1717675048681,13.0000000000,2.0000000000,19.0000000000,179.0000000000,344.0000000000,270.0000000000
1717675048681,13.0000000000,2.0000000000,19.0000000000,179.0000000000,342.0000000000,268.0000000000
1717675048681,13.0000000000,3.0000000000,19.0000000000,177.0000000000,339.0000000000,266.0000000000
1717675048682,13.0000000000,2.0000000000,19.0000000000,176.0000000000,337.0000000000,265.0000000000
1717675048682,13.0000000000,2.0000000000,19.0000000000,175.0000000000,335.0000000000,263.0000000000
1717675048683,12.0000000000,2.0000000000,19.0000000000,174.0000000000,333.0000000000,262.0000000000
1717675048683,12.0000000000,2.0000000000,19.0000000000,173.0000000000,331.0000000000,260.0000000000
1717675048683,12.0000000000,2.0000000000,19.0000000000,172.0000000000,327.0000000000,316.0000000000
1717675048683,12.0000000000,3.0000000000,18.0000000000,171.0000000000,327.0000000000,312.0000000000
1717675048683,12.0000000000,3.0000000000,19.0000000000,169.0000000000,324.0000000000,310.0000000000
1717675048701,12.0000000000,3.0000000000,22.0000000000,169.0000000000,322.0000000000,307.0000000000
1717675048702,12.0000000000,3.0000000000,23.0000000000,167.0000000000,319.0000000000,305.0000000000
1717675048702,12.0000000000,3.0000000000,23.0000000000,167.0000000000,318.0000000000,304.0000000000
1717675048702,12.0000000000,3.0000000000,23.0000000000,166.0000000000,316.0000000000,302.0000000000
1717675048702,12.0000000000,3.0000000000,23.0000000000,165.0000000000,315.0000000000,299.0000000000
1717675048703,12.0000000000,3.0000000000,23.0000000000,164.0000000000,312.0000000000,297.0000000000
1717675048703,12.0000000000,3.0000000000,22.0000000000,163.0000000000,311.0000000000,295.0000000000
1717675048703,12.0000000000,3.0000000000,22.0000000000,162.0000000000,308.0000000000,293.0000000000
1717675048703,12.0000000000,3.0000000000,22.0000000000,161.0000000000,307.0000000000,291.0000000000
1717675048704,12.0000000000,3.0000000000,22.0000000000,160.0000000000,305.0000000000,289.0000000000
1717675048704,12.0000000000,2.0000000000,21.0000000000,159.0000000000,303.0000000000,287.0000000000
1717675048726,12.0000000000,3.0000000000,22.0000000000,159.0000000000,302.0000000000,286.0000000000
1717675048727,11.0000000000,3.0000000000,21.0000000000,158.0000000000,300.0000000000,284.0000000000
1717675048728,12.0000000000,3.0000000000,21.0000000000,156.0000000000,297.0000000000,281.0000000000
1717675048728,11.0000000000,2.0000000000,20.0000000000,156.0000000000,295.0000000000,280.0000000000
1717675048729,11.0000000000,3.0000000000,20.0000000000,155.0000000000,294.0000000000,278.0000000000
1717675048729,11.0000000000,3.0000000000,20.0000000000,154.0000000000,291.0000000000,276.0000000000
1717675048729,11.0000000000,3.0000000000,20.0000000000,153.0000000000,290.0000000000,275.0000000000
1717675048730,11.0000000000,3.0000000000,20.0000000000,152.0000000000,289.0000000000,276.0000000000
1717675048730,11.0000000000,3.0000000000,20.0000000000,152.0000000000,304.0000000000,275.0000000000
1717675048730,11.0000000000,3.0000000000,20.0000000000,150.0000000000,302.0000000000,273.0000000000
1717675048730,11.0000000000,3.0000000000,20.0000000000,150.0000000000,300.0000000000,271.0000000000
1717675048730,11.0000000000,3.0000000000,19.0000000000,148.0000000000,297.0000000000,270.0000000000
1717675048731,11.0000000000,2.0000000000,19.0000000000,147.0000000000,295.0000000000,268.0000000000
1717675048731,11.0000000000,2.0000000000,19.0000000000,147.0000000000,294.0000000000,327.0000000000
1717675048731,10.0000000000,2.0000000000,19.0000000000,146.0000000000,291.0000000000,323.0000000000
1717675048731,11.0000000000,2.0000000000,19.0000000000,145.0000000000,289.0000000000,320.0000000000
1717675048767,11.0000000000,3.0000000000,19.0000000000,145.0000000000,287.0000000000,319.0000000000
1717675048768,9.0000000000,2.0000000000,19.0000000000,143.0000000000,292.0000000000,316.0000000000
1717675048768,12.0000000000,2.0000000000,19.0000000000,143.0000000000,344.0000000000,337.0000000000
1717675048768,13.0000000000,2.0000000000,19.0000000000,142.0000000000,427.0000000000,334.0000000000
1717675048768,13.0000000000,2.0000000000,18.0000000000,142.0000000000,442.0000000000,331.0000000000
1717675048769,12.0000000000,2.0000000000,18.0000000000,140.0000000000,439.0000000000,327.0000000000
1717675048769,12.0000000000,3.0000000000,19.0000000000,140.0000000000,435.0000000000,326.0000000000
1717675048769,12.0000000000,3.0000000000,18.0000000000,139.0000000000,430.0000000000,323.0000000000
1717675048769,12.0000000000,2.0000000000,18.0000000000,139.0000000000,428.0000000000,321.0000000000
1717675048770,12.0000000000,3.0000000000,18.0000000000,137.0000000000,423.0000000000,319.0000000000
1717675048770,12.0000000000,2.0000000000,18.0000000000,137.0000000000,420.0000000000,327.0000000000
1717675048770,12.0000000000,2.0000000000,18.0000000000,136.0000000000,417.0000000000,324.0000000000
1717675048770,12.0000000000,2.0000000000,17.0000000000,135.0000000000,414.0000000000,322.0000000000
1717675048771,12.0000000000,3.0000000000,17.0000000000,135.0000000000,412.0000000000,319.0000000000
1717675048771,12.0000000000,2.0000000000,17.0000000000,134.0000000000,408.0000000000,318.0000000000
1717675048771,12.0000000000,2.0000000000,17.0000000000,134.0000000000,406.0000000000,315.0000000000
1717675048771,12.0000000000,2.0000000000,18.0000000000,132.0000000000,402.0000000000,313.0000000000
1717675048772,11.0000000000,3.0000000000,17.0000000000,131.0000000000,399.0000000000,312.0000000000
1717675048772,12.0000000000,3.0000000000,17.0000000000,131.0000000000,396.0000000000,308.0000000000
1717675048773,12.0000000000,2.0000000000,17.0000000000,130.0000000000,393.0000000000,307.0000000000
1717675048773,11.0000000000,2.0000000000,17.0000000000,129.0000000000,391.0000000000,304.0000000000
1717675048774,11.0000000000,3.0000000000,17.0000000000,129.0000000000,387.0000000000,303.0000000000
1717675048774,39.0000000000,2.0000000000,17.0000000000,127.0000000000,386.0000000000,301.0000000000
1717675048775,39.0000000000,2.0000000000,17.0000000000,127.0000000000,383.0000000000,299.0000000000
1717675048776,39.0000000000,2.0000000000,17.0000000000,127.0000000000,380.0000000000,302.0000000000
1717675048798,39.0000000000,2.0000000000,17.0000000000,126.0000000000,378.0000000000,299.0000000000
1717675048801,39.0000000000,2.0000000000,16.0000000000,125.0000000000,376.0000000000,296.0000000000
1717675048802,39.0000000000,2.0000000000,17.0000000000,125.0000000000,373.0000000000,295.0000000000
1717675048803,39.0000000000,2.0000000000,16.0000000000,124.0000000000,370.0000000000,293.0000000000
1717675048804,39.0000000000,2.0000000000,15.0000000000,124.0000000000,368.0000000000,291.0000000000
1717675048804,39.0000000000,3.0000000000,16.0000000000,123.0000000000,365.0000000000,289.0000000000
1717675048805,38.0000000000,2.0000000000,16.0000000000,122.0000000000,363.0000000000,287.0000000000
1717675048806,38.0000000000,1.0000000000,15.0000000000,121.0000000000,360.0000000000,285.0000000000
1717675048807,38.0000000000,2.0000000000,15.0000000000,120.0000000000,358.0000000000,284.0000000000
1717675048808,37.0000000000,2.0000000000,15.0000000000,120.0000000000,355.0000000000,282.0000000000
1717675048809,36.0000000000,1.0000000000,15.0000000000,119.0000000000,353.0000000000,280.0000000000
1717675048810,37.0000000000,1.0000000000,15.0000000000,119.0000000000,351.0000000000,279.0000000000
1717675048811,36.0000000000,2.0000000000,15.0000000000,118.0000000000,349.0000000000,277.0000000000
1717675048812,35.0000000000,2.0000000000,15.0000000000,118.0000000000,347.0000000000,275.0000000000
1717675048813,36.0000000000,2.0000000000,15.0000000000,117.0000000000,345.0000000000,273.0000000000
1717675048814,35.0000000000,2.0000000000,15.0000000000,116.0000000000,342.0000000000,271.0000000000
1717675048815,35.0000000000,2.0000000000,18.0000000000,176.0000000000,339.0000000000,271.0000000000
1717675048815,35.0000000000,2.0000000000,27.0000000000,183.0000000000,338.0000000000,268.0000000000
1717675048816,35.0000000000,1.0000000000,26.0000000000,182.0000000000,335.0000000000,268.0000000000
1717675048817,35.0000000000,2.0000000000,26.0000000000,179.0000000000,334.0000000000,265.0000000000
1717675048818,35.0000000000,2.0000000000,26.0000000000,179.0000000000,332.0000000000,263.0000000000
1717675048819,39.0000000000,2.0000000000,25.0000000000,177.0000000000,330.0000000000,263.0000000000
1717675048819,39.0000000000,2.0000000000,25.0000000000,176.0000000000,327.0000000000,260.0000000000
1717675048820,39.0000000000,2.0000000000,25.0000000000,175.0000000000,391.0000000000,259.0000000000
1717675048821,39.0000000000,1.0000000000,24.0000000000,174.0000000000,399.0000000000,257.0000000000
1717675048822,39.0000000000,2.0000000000,25.0000000000,173.0000000000,395.0000000000,255.0000000000
1717675048839,39.0000000000,1.0000000000,24.0000000000,172.0000000000,391.0000000000,255.0000000000
1717675048840,38.0000000000,2.0000000000,24.0000000000,170.0000000000,468.0000000000,253.0000000000
1717675048840,38.0000000000,2.0000000000,24.0000000000,169.0000000000,463.0000000000,252.0000000000
1717675048840,38.0000000000,2.0000000000,24.0000000000,167.0000000000,460.0000000000,249.0000000000
1717675048840,38.0000000000,2.0000000000,24.0000000000,167.0000000000,455.0000000000,249.0000000000
1717675048841,47.0000000000,1.0000000000,24.0000000000,166.0000000000,452.0000000000,248.0000000000
1717675048841,47.0000000000,2.0000000000,24.0000000000,165.0000000000,448.0000000000,246.0000000000
1717675048841,47.0000000000,2.0000000000,24.0000000000,164.0000000000,444.0000000000,244.0000000000
1717675048841,46.0000000000,1.0000000000,24.0000000000,174.0000000000,441.0000000000,243.0000000000
1717675048841,46.0000000000,1.0000000000,24.0000000000,209.0000000000,438.0000000000,242.0000000000
1717675048841,45.0000000000,1.0000000000,24.0000000000,207.0000000000,435.0000000000,240.0000000000
1717675048858,45.0000000000,1.0000000000,23.0000000000,206.0000000000,432.0000000000,240.0000000000
1717675048859,45.0000000000,1.0000000000,24.0000000000,204.0000000000,428.0000000000,238.0000000000
1717675048859,44.0000000000,1.0000000000,23.0000000000,203.0000000000,424.0000000000,236.0000000000
1717675048860,44.0000000000,1.0000000000,23.0000000000,201.0000000000,421.0000000000,236.0000000000
1717675048860,44.0000000000,1.0000000000,22.0000000000,199.0000000000,419.0000000000,344.0000000000
1717675048860,131.0000000000,1.0000000000,23.0000000000,199.0000000000,415.0000000000,361.0000000000
1717675048860,155.0000000000,1.0000000000,23.0000000000,197.0000000000,412.0000000000,356.0000000000
1717675048860,153.0000000000,1.0000000000,22.0000000000,195.0000000000,408.0000000000,353.0000000000
1717675048860,152.0000000000,1.0000000000,22.0000000000,195.0000000000,406.0000000000,351.0000000000
1717675048879,151.0000000000,1.0000000000,22.0000000000,193.0000000000,403.0000000000,348.0000000000
1717675048880,150.0000000000,1.0000000000,22.0000000000,192.0000000000,399.0000000000,345.0000000000
1717675048880,148.0000000000,1.0000000000,51.0000000000,191.0000000000,396.0000000000,344.0000000000
1717675048881,147.0000000000,1.0000000000,68.0000000000,190.0000000000,395.0000000000,340.0000000000
1717675048881,146.0000000000,1.0000000000,67.0000000000,188.0000000000,391.0000000000,337.0000000000
1717675048881,145.0000000000,1.0000000000,67.0000000000,187.0000000000,388.0000000000,335.0000000000
1717675048881,144.0000000000,1.0000000000,67.0000000000,186.0000000000,385.0000000000,333.0000000000
1717675048881,159.0000000000,1.0000000000,67.0000000000,184.0000000000,384.0000000000,331.0000000000
1717675048881,159.0000000000,1.0000000000,66.0000000000,184.0000000000,380.0000000000,327.0000000000
1717675048881,157.0000000000,1.0000000000,65.0000000000,183.0000000000,377.0000000000,327.0000000000
1717675048882,156.0000000000,1.0000000000,65.0000000000,182.0000000000,375.0000000000,324.0000000000
1717675048882,156.0000000000,1.0000000000,64.0000000000,179.0000000000,372.0000000000,321.0000000000
1717675048882,153.0000000000,1.0000000000,63.0000000000,179.0000000000,370.0000000000,319.0000000000
1717675048902,152.0000000000,1.0000000000,63.0000000000,178.0000000000,368.0000000000,318.0000000000
1717675048903,152.0000000000,3.0000000000,63.0000000000,176.0000000000,365.0000000000,315.0000000000
1717675048903,152.0000000000,3.0000000000,62.0000000000,175.0000000000,363.0000000000,312.0000000000
1717675048903,150.0000000000,3.0000000000,62.0000000000,174.0000000000,359.0000000000,311.0000000000
1717675048903,149.0000000000,3.0000000000,62.0000000000,174.0000000000,358.0000000000,430.0000000000
1717675048904,157.0000000000,3.0000000000,62.0000000000,172.0000000000,355.0000000000,466.0000000000
1717675048904,156.0000000000,3.0000000000,61.0000000000,172.0000000000,353.0000000000,461.0000000000
1717675048904,155.0000000000,3.0000000000,61.0000000000,205.0000000000,351.0000000000,455.0000000000
1717675048904,153.0000000000,3.0000000000,60.0000000000,203.0000000000,348.0000000000,453.0000000000
1717675048905,152.0000000000,3.0000000000,60.0000000000,201.0000000000,345.0000000000,449.0000000000
1717675048905,152.0000000000,3.0000000000,60.0000000000,199.0000000000,344.0000000000,445.0000000000
1717675048927,151.0000000000,3.0000000000,59.0000000000,198.0000000000,341.0000000000,441.0000000000
1717675048927,148.0000000000,3.0000000000,59.0000000000,198.0000000000,339.0000000000,437.0000000000
1717675048928,147.0000000000,3.0000000000,59.0000000000,195.0000000000,336.0000000000,434.0000000000
1717675048928,147.0000000000,3.0000000000,59.0000000000,220.0000000000,335.0000000000,431.0000000000
1717675048928,146.0000000000,3.0000000000,58.0000000000,268.0000000000,333.0000000000,427.0000000000
1717675048928,145.0000000000,3.0000000000,57.0000000000,265.0000000000,331.0000000000,423.0000000000
1717675048928,143.0000000000,3.0000000000,56.0000000000,263.0000000000,327.0000000000,420.0000000000
1717675048929,143.0000000000,3.0000000000,56.0000000000,262.0000000000,326.0000000000,417.0000000000
1717675048929,143.0000000000,2.0000000000,56.0000000000,259.0000000000,324.0000000000,414.0000000000
1717675048929,141.0000000000,3.0000000000,56.0000000000,257.0000000000,322.0000000000,411.0000000000
1717675048929,141.0000000000,3.0000000000,56.0000000000,255.0000000000,319.0000000000,408.0000000000
1717675048929,140.0000000000,3.0000000000,55.0000000000,254.0000000000,318.0000000000,404.0000000000
1717675048929,139.0000000000,3.0000000000,56.0000000000,252.0000000000,316.0000000000,401.0000000000
1717675048956,137.0000000000,3.0000000000,55.0000000000,249.0000000000,314.0000000000,399.0000000000
1717675048956,136.0000000000,3.0000000000,55.0000000000,248.0000000000,312.0000000000,396.0000000000
1717675048957,135.0000000000,3.0000000000,54.0000000000,247.0000000000,310.0000000000,393.0000000000
1717675048957,135.0000000000,3.0000000000,54.0000000000,245.0000000000,371.0000000000,390.0000000000
1717675048957,135.0000000000,3.0000000000,54.0000000000,243.0000000000,368.0000000000,453.0000000000
1717675048957,134.0000000000,3.0000000000,53.0000000000,242.0000000000,365.0000000000,554.0000000000
1717675048957,132.0000000000,6.0000000000,52.0000000000,240.0000000000,361.0000000000,546.0000000000
1717675048958,132.0000000000,6.0000000000,51.0000000000,239.0000000000,359.0000000000,540.0000000000
1717675048958,131.0000000000,6.0000000000,51.0000000000,237.0000000000,356.0000000000,535.0000000000
1717675048958,130.0000000000,6.0000000000,51.0000000000,236.0000000000,353.0000000000,531.0000000000
1717675048958,129.0000000000,6.0000000000,59.0000000000,233.0000000000,351.0000000000,526.0000000000
1717675048958,128.0000000000,5.0000000000,58.0000000000,231.0000000000,349.0000000000,519.0000000000
1717675048959,127.0000000000,6.0000000000,58.0000000000,230.0000000000,345.0000000000,515.0000000000
1717675048959,127.0000000000,5.0000000000,57.0000000000,228.0000000000,344.0000000000,512.0000000000
1717675048959,127.0000000000,5.0000000000,57.0000000000,227.0000000000,340.0000000000,507.0000000000
1717675048959,126.0000000000,6.0000000000,56.0000000000,226.0000000000,338.0000000000,502.0000000000
1717675048959,125.0000000000,6.0000000000,56.0000000000,224.0000000000,335.0000000000,498.0000000000
1717675048960,124.0000000000,5.0000000000,56.0000000000,224.0000000000,334.0000000000,493.0000000000
1717675048981,124.0000000000,5.0000000000,55.0000000000,223.0000000000,331.0000000000,491.0000000000
1717675048983,122.0000000000,5.0000000000,55.0000000000,220.0000000000,327.0000000000,486.0000000000
1717675048983,121.0000000000,4.0000000000,55.0000000000,219.0000000000,327.0000000000,481.0000000000
1717675048983,121.0000000000,5.0000000000,54.0000000000,217.0000000000,324.0000000000,477.0000000000
1717675048983,120.0000000000,4.0000000000,54.0000000000,216.0000000000,322.0000000000,475.0000000000
1717675048983,120.0000000000,4.0000000000,54.0000000000,216.0000000000,319.0000000000,470.0000000000
1717675048984,119.0000000000,5.0000000000,53.0000000000,214.0000000000,318.0000000000,466.0000000000
1717675048984,205.0000000000,4.0000000000,53.0000000000,211.0000000000,316.0000000000,462.0000000000
1717675048984,203.0000000000,4.0000000000,52.0000000000,211.0000000000,313.0000000000,460.0000000000
1717675048984,200.0000000000,4.0000000000,52.0000000000,210.0000000000,312.0000000000,455.0000000000
1717675048984,199.0000000000,4.0000000000,52.0000000000,207.0000000000,310.0000000000,451.0000000000
1717675048984,198.0000000000,4.0000000000,51.0000000000,207.0000000000,307.0000000000,448.0000000000
1717675048984,195.0000000000,4.0000000000,51.0000000000,206.0000000000,305.0000000000,446.0000000000
1717675049000,195.0000000000,4.0000000000,51.0000000000,205.0000000000,304.0000000000,441.0000000000
1717675049001,193.0000000000,4.0000000000,50.0000000000,203.0000000000,302.0000000000,438.0000000000
1717675049001,192.0000000000,3.0000000000,51.0000000000,201.0000000000,300.0000000000,435.0000000000
1717675049001,191.0000000000,4.0000000000,50.0000000000,201.0000000000,298.0000000000,432.0000000000
1717675049001,190.0000000000,4.0000000000,49.0000000000,199.0000000000,295.0000000000,429.0000000000
1717675049001,188.0000000000,4.0000000000,49.0000000000,199.0000000000,295.0000000000,425.0000000000
1717675049001,187.0000000000,4.0000000000,49.0000000000,197.0000000000,293.0000000000,422.0000000000
1717675049001,185.0000000000,3.0000000000,49.0000000000,196.0000000000,291.0000000000,419.0000000000
1717675049001,184.0000000000,3.0000000000,48.0000000000,195.0000000000,289.0000000000,416.0000000000
1717675049016,184.0000000000,4.0000000000,48.0000000000,193.0000000000,287.0000000000,413.0000000000
1717675049018,182.0000000000,4.0000000000,48.0000000000,192.0000000000,286.0000000000,410.0000000000
1717675049018,181.0000000000,4.0000000000,48.0000000000,192.0000000000,284.0000000000,408.0000000000
1717675049018,179.0000000000,3.0000000000,47.0000000000,191.0000000000,281.0000000000,404.0000000000
1717675049019,178.0000000000,4.0000000000,47.0000000000,190.0000000000,280.0000000000,401.0000000000
1717675049019,177.0000000000,4.0000000000,47.0000000000,188.0000000000,280.0000000000,398.0000000000
1717675049020,176.0000000000,3.0000000000,47.0000000000,187.0000000000,278.0000000000,396.0000000000
1717675049020,175.0000000000,3.0000000000,46.0000000000,186.0000000000,275.0000000000,393.0000000000
1717675049049,174.0000000000,4.0000000000,46.0000000000,184.0000000000,274.0000000000,391.0000000000
1717675049050,173.0000000000,3.0000000000,45.0000000000,184.0000000000,273.0000000000,387.0000000000
1717675049050,172.0000000000,5.0000000000,59.0000000000,183.0000000000,271.0000000000,385.0000000000
1717675049050,171.0000000000,4.0000000000,57.0000000000,182.0000000000,269.0000000000,383.0000000000
1717675049050,169.0000000000,4.0000000000,57.0000000000,180.0000000000,268.0000000000,380.0000000000
1717675049050,168.0000000000,4.0000000000,68.0000000000,179.0000000000,266.0000000000,377.0000000000
1717675049050,167.0000000000,5.0000000000,67.0000000000,178.0000000000,263.0000000000,376.0000000000
1717675049051,167.0000000000,5.0000000000,67.0000000000,195.0000000000,263.0000000000,373.0000000000
1717675049051,166.0000000000,4.0000000000,66.0000000000,236.0000000000,355.0000000000,370.0000000000
1717675049051,163.0000000000,4.0000000000,66.0000000000,234.0000000000,352.0000000000,368.0000000000
1717675049051,163.0000000000,4.0000000000,65.0000000000,231.0000000000,350.0000000000,365.0000000000
1717675049051,163.0000000000,4.0000000000,65.0000000000,231.0000000000,346.0000000000,364.0000000000
1717675049051,161.0000000000,5.0000000000,64.0000000000,229.0000000000,344.0000000000,359.0000000000
1717675049051,159.0000000000,5.0000000000,63.0000000000,227.0000000000,342.0000000000,358.0000000000
1717675049051,159.0000000000,4.0000000000,63.0000000000,225.0000000000,339.0000000000,355.0000000000
1717675049051,159.0000000000,4.0000000000,63.0000000000,224.0000000000,335.0000000000,354.0000000000
1717675049051,158.0000000000,4.0000000000,63.0000000000,223.0000000000,446.0000000000,453.0000000000
1717675049051,156.0000000000,4.0000000000,62.0000000000,221.0000000000,490.0000000000,448.0000000000
1717675049065,156.0000000000,5.0000000000,62.0000000000,220.0000000000,484.0000000000,443.0000000000
1717675049065,155.0000000000,4.0000000000,62.0000000000,218.0000000000,480.0000000000,440.0000000000
1717675049066,153.0000000000,4.0000000000,62.0000000000,216.0000000000,476.0000000000,435.0000000000
1717675049066,152.0000000000,4.0000000000,60.0000000000,215.0000000000,472.0000000000,432.0000000000
1717675049066,152.0000000000,4.0000000000,60.0000000000,214.0000000000,467.0000000000,428.0000000000
1717675049066,151.0000000000,4.0000000000,60.0000000000,212.0000000000,463.0000000000,425.0000000000
1717675049066,150.0000000000,5.0000000000,61.0000000000,211.0000000000,460.0000000000,422.0000000000
1717675049066,148.0000000000,4.0000000000,61.0000000000,210.0000000000,455.0000000000,418.0000000000
1717675049066,147.0000000000,5.0000000000,61.0000000000,208.0000000000,452.0000000000,414.0000000000
1717675049080,147.0000000000,4.0000000000,60.0000000000,207.0000000000,448.0000000000,411.0000000000
1717675049080,147.0000000000,4.0000000000,60.0000000000,206.0000000000,445.0000000000,408.0000000000
1717675049080,145.0000000000,5.0000000000,59.0000000000,204.0000000000,440.0000000000,405.0000000000
1717675049080,144.0000000000,4.0000000000,59.0000000000,203.0000000000,438.0000000000,401.0000000000
1717675049081,143.0000000000,4.0000000000,59.0000000000,201.0000000000,435.0000000000,398.0000000000
1717675049081,143.0000000000,4.0000000000,59.0000000000,199.0000000000,431.0000000000,396.0000000000
1717675049096,142.0000000000,4.0000000000,58.0000000000,199.0000000000,428.0000000000,393.0000000000
1717675049096,141.0000000000,4.0000000000,57.0000000000,198.0000000000,424.0000000000,390.0000000000
1717675049097,140.0000000000,4.0000000000,57.0000000000,196.0000000000,422.0000000000,387.0000000000
1717675049097,140.0000000000,4.0000000000,57.0000000000,195.0000000000,418.0000000000,384.0000000000
1717675049097,139.0000000000,4.0000000000,56.0000000000,194.0000000000,415.0000000000,382.0000000000
1717675049097,138.0000000000,4.0000000000,56.0000000000,193.0000000000,412.0000000000,379.0000000000
1717675049097,137.0000000000,4.0000000000,56.0000000000,192.0000000000,409.0000000000,376.0000000000
1717675049097,135.0000000000,4.0000000000,56.0000000000,191.0000000000,406.0000000000,380.0000000000
1717675049097,135.0000000000,4.0000000000,56.0000000000,190.0000000000,403.0000000000,507.0000000000
1717675049112,135.0000000000,4.0000000000,55.0000000000,188.0000000000,400.0000000000,512.0000000000
1717675049113,134.0000000000,4.0000000000,55.0000000000,188.0000000000,398.0000000000,507.0000000000
1717675049113,134.0000000000,3.0000000000,55.0000000000,185.0000000000,395.0000000000,504.0000000000
1717675049113,132.0000000000,4.0000000000,54.0000000000,184.0000000000,391.0000000000,499.0000000000
1717675049113,132.0000000000,3.0000000000,53.0000000000,184.0000000000,389.0000000000,493.0000000000
1717675049113,131.0000000000,3.0000000000,53.0000000000,183.0000000000,386.0000000000,488.0000000000
1717675049114,130.0000000000,3.0000000000,53.0000000000,182.0000000000,384.0000000000,486.0000000000
1717675049114,130.0000000000,4.0000000000,52.0000000000,180.0000000000,380.0000000000,481.0000000000
1717675049114,203.0000000000,4.0000000000,52.0000000000,179.0000000000,379.0000000000,477.0000000000
1717675049130,199.0000000000,4.0000000000,51.0000000000,177.0000000000,376.0000000000,472.0000000000
1717675049131,198.0000000000,3.0000000000,51.0000000000,177.0000000000,372.0000000000,470.0000000000
1717675049132,196.0000000000,3.0000000000,51.0000000000,176.0000000000,370.0000000000,465.0000000000
1717675049132,195.0000000000,3.0000000000,51.0000000000,175.0000000000,368.0000000000,462.0000000000
1717675049132,193.0000000000,3.0000000000,50.0000000000,174.0000000000,365.0000000000,457.0000000000
1717675049133,192.0000000000,3.0000000000,50.0000000000,173.0000000000,363.0000000000,454.0000000000
1717675049133,191.0000000000,3.0000000000,50.0000000000,172.0000000000,359.0000000000,451.0000000000
1717675049133,190.0000000000,3.0000000000,49.0000000000,171.0000000000,358.0000000000,447.0000000000
1717675049134,188.0000000000,3.0000000000,49.0000000000,169.0000000000,355.0000000000,443.0000000000
1717675049134,187.0000000000,3.0000000000,49.0000000000,179.0000000000,353.0000000000,440.0000000000
1717675049134,185.0000000000,3.0000000000,48.0000000000,179.0000000000,351.0000000000,437.0000000000
1717675049165,195.0000000000,3.0000000000,48.0000000000,177.0000000000,348.0000000000,433.0000000000
1717675049165,194.0000000000,3.0000000000,48.0000000000,176.0000000000,347.0000000000,430.0000000000
1717675049166,192.0000000000,3.0000000000,48.0000000000,175.0000000000,344.0000000000,426.0000000000
1717675049166,191.0000000000,3.0000000000,47.0000000000,174.0000000000,342.0000000000,423.0000000000
1717675049166,190.0000000000,3.0000000000,47.0000000000,172.0000000000,339.0000000000,420.0000000000
1717675049166,188.0000000000,3.0000000000,47.0000000000,172.0000000000,337.0000000000,417.0000000000
1717675049166,188.0000000000,3.0000000000,47.0000000000,171.0000000000,335.0000000000,499.0000000000
1717675049166,186.0000000000,3.0000000000,46.0000000000,169.0000000000,333.0000000000,567.0000000000
1717675049166,184.0000000000,3.0000000000,46.0000000000,167.0000000000,331.0000000000,560.0000000000
1717675049166,184.0000000000,3.0000000000,46.0000000000,167.0000000000,332.0000000000,553.0000000000
1717675049166,182.0000000000,3.0000000000,45.0000000000,166.0000000000,329.0000000000,548.0000000000
1717675049166,181.0000000000,3.0000000000,46.0000000000,165.0000000000,378.0000000000,543.0000000000
1717675049167,179.0000000000,3.0000000000,45.0000000000,164.0000000000,375.0000000000,539.0000000000
1717675049168,179.0000000000,3.0000000000,44.0000000000,163.0000000000,372.0000000000,534.0000000000
1717675049168,177.0000000000,4.0000000000,44.0000000000,163.0000000000,369.0000000000,528.0000000000
1717675049168,176.0000000000,4.0000000000,44.0000000000,161.0000000000,366.0000000000,524.0000000000
1717675049168,175.0000000000,5.0000000000,44.0000000000,160.0000000000,363.0000000000,519.0000000000
1717675049181,175.0000000000,4.0000000000,44.0000000000,159.0000000000,360.0000000000,515.0000000000
1717675049182,173.0000000000,4.0000000000,43.0000000000,159.0000000000,358.0000000000,510.0000000000
1717675049182,172.0000000000,4.0000000000,43.0000000000,158.0000000000,355.0000000000,507.0000000000
1717675049182,171.0000000000,4.0000000000,43.0000000000,157.0000000000,352.0000000000,502.0000000000
1717675049182,169.0000000000,4.0000000000,43.0000000000,156.0000000000,350.0000000000,497.0000000000
1717675049182,168.0000000000,4.0000000000,43.0000000000,155.0000000000,348.0000000000,493.0000000000
1717675049182,167.0000000000,3.0000000000,43.0000000000,155.0000000000,345.0000000000,488.0000000000
1717675049182,167.0000000000,4.0000000000,42.0000000000,153.0000000000,343.0000000000,486.0000000000
1717675049183,166.0000000000,4.0000000000,41.0000000000,152.0000000000,340.0000000000,481.0000000000
1717675049198,164.0000000000,3.0000000000,41.0000000000,152.0000000000,338.0000000000,477.0000000000
1717675049199,163.0000000000,4.0000000000,41.0000000000,151.0000000000,335.0000000000,473.0000000000
1717675049199,163.0000000000,3.0000000000,41.0000000000,150.0000000000,333.0000000000,470.0000000000
1717675049199,161.0000000000,4.0000000000,41.0000000000,154.0000000000,331.0000000000,466.0000000000
1717675049199,159.0000000000,3.0000000000,39.0000000000,175.0000000000,328.0000000000,463.0000000000
1717675049200,159.0000000000,3.0000000000,40.0000000000,174.0000000000,327.0000000000,459.0000000000
1717675049200,159.0000000000,3.0000000000,39.0000000000,173.0000000000,324.0000000000,484.0000000000
1717675049200,158.0000000000,3.0000000000,39.0000000000,172.0000000000,323.0000000000,625.0000000000
1717675049200,157.0000000000,24.0000000000,39.0000000000,170.0000000000,319.0000000000,643.0000000000
1717675049201,156.0000000000,23.0000000000,39.0000000000,169.0000000000,319.0000000000,635.0000000000
1717675049201,155.0000000000,22.0000000000,39.0000000000,167.0000000000,316.0000000000,627.0000000000
1717675049220,153.0000000000,22.0000000000,39.0000000000,167.0000000000,313.0000000000,621.0000000000
1717675049221,153.0000000000,22.0000000000,39.0000000000,166.0000000000,312.0000000000,614.0000000000
1717675049222,152.0000000000,22.0000000000,38.0000000000,164.0000000000,310.0000000000,608.0000000000
1717675049222,151.0000000000,21.0000000000,39.0000000000,163.0000000000,308.0000000000,601.0000000000
1717675049223,150.0000000000,22.0000000000,38.0000000000,161.0000000000,305.0000000000,595.0000000000
1717675049223,150.0000000000,21.0000000000,38.0000000000,161.0000000000,304.0000000000,591.0000000000
1717675049223,147.0000000000,21.0000000000,37.0000000000,159.0000000000,337.0000000000,584.0000000000
1717675049223,147.0000000000,20.0000000000,37.0000000000,159.0000000000,335.0000000000,579.0000000000
1717675049224,146.0000000000,20.0000000000,37.0000000000,244.0000000000,391.0000000000,574.0000000000
1717675049224,145.0000000000,19.0000000000,36.0000000000,242.0000000000,444.0000000000,568.0000000000
1717675049243,145.0000000000,19.0000000000,38.0000000000,240.0000000000,440.0000000000,634.0000000000
1717675049244,143.0000000000,20.0000000000,38.0000000000,238.0000000000,435.0000000000,627.0000000000
1717675049244,143.0000000000,20.0000000000,38.0000000000,236.0000000000,432.0000000000,620.0000000000
1717675049244,142.0000000000,20.0000000000,37.0000000000,235.0000000000,428.0000000000,614.0000000000
1717675049244,141.0000000000,19.0000000000,36.0000000000,231.0000000000,425.0000000000,607.0000000000
1717675049244,140.0000000000,19.0000000000,36.0000000000,231.0000000000,422.0000000000,600.0000000000
1717675049245,140.0000000000,19.0000000000,36.0000000000,228.0000000000,418.0000000000,594.0000000000
1717675049245,139.0000000000,19.0000000000,36.0000000000,227.0000000000,415.0000000000,588.0000000000
1717675049245,137.0000000000,19.0000000000,36.0000000000,225.0000000000,411.0000000000,582.0000000000
1717675049245,136.0000000000,19.0000000000,35.0000000000,224.0000000000,408.0000000000,578.0000000000
1717675049245,135.0000000000,19.0000000000,35.0000000000,223.0000000000,403.0000000000,572.0000000000
1717675049287,135.0000000000,19.0000000000,35.0000000000,222.0000000000,401.0000000000,567.0000000000
1717675049288,134.0000000000,19.0000000000,35.0000000000,220.0000000000,397.0000000000,560.0000000000
1717675049289,134.0000000000,18.0000000000,34.0000000000,218.0000000000,395.0000000000,556.0000000000
1717675049289,132.0000000000,19.0000000000,35.0000000000,216.0000000000,391.0000000000,551.0000000000
1717675049289,131.0000000000,18.0000000000,34.0000000000,216.0000000000,388.0000000000,545.0000000000
1717675049289,131.0000000000,18.0000000000,34.0000000000,214.0000000000,385.0000000000,540.0000000000
1717675049290,130.0000000000,18.0000000000,33.0000000000,211.0000000000,384.0000000000,536.0000000000
1717675049290,129.0000000000,18.0000000000,34.0000000000,211.0000000000,380.0000000000,531.0000000000
1717675049290,127.0000000000,17.0000000000,33.0000000000,209.0000000000,377.0000000000,526.0000000000
1717675049291,127.0000000000,17.0000000000,33.0000000000,207.0000000000,374.0000000000,521.0000000000
1717675049291,127.0000000000,17.0000000000,33.0000000000,207.0000000000,371.0000000000,516.0000000000
1717675049291,126.0000000000,17.0000000000,33.0000000000,205.0000000000,369.0000000000,512.0000000000
1717675049292,126.0000000000,17.0000000000,33.0000000000,204.0000000000,366.0000000000,508.0000000000
1717675049292,125.0000000000,17.0000000000,31.0000000000,203.0000000000,363.0000000000,504.0000000000
1717675049292,124.0000000000,17.0000000000,32.0000000000,201.0000000000,359.0000000000,499.0000000000
1717675049292,138.0000000000,16.0000000000,31.0000000000,199.0000000000,358.0000000000,496.0000000000
1717675049293,146.0000000000,17.0000000000,31.0000000000,199.0000000000,355.0000000000,492.0000000000
1717675049293,145.0000000000,16.0000000000,31.0000000000,198.0000000000,352.0000000000,487.0000000000
1717675049293,144.0000000000,16.0000000000,31.0000000000,196.0000000000,351.0000000000,483.0000000000
1717675049293,143.0000000000,16.0000000000,31.0000000000,195.0000000000,348.0000000000,479.0000000000
1717675049294,142.0000000000,15.0000000000,31.0000000000,193.0000000000,345.0000000000,476.0000000000
1717675049294,141.0000000000,15.0000000000,31.0000000000,192.0000000000,344.0000000000,688.0000000000
1717675049294,140.0000000000,16.0000000000,31.0000000000,191.0000000000,340.0000000000,692.0000000000
1717675049295,139.0000000000,15.0000000000,31.0000000000,190.0000000000,339.0000000000,684.0000000000
1717675049295,138.0000000000,15.0000000000,31.0000000000,188.0000000000,335.0000000000,676.0000000000
1717675049295,137.0000000000,15.0000000000,30.0000000000,187.0000000000,334.0000000000,668.0000000000
1717675049295,135.0000000000,15.0000000000,30.0000000000,185.0000000000,331.0000000000,661.0000000000
1717675049351,135.0000000000,15.0000000000,30.0000000000,185.0000000000,329.0000000000,655.0000000000
1717675049353,135.0000000000,15.0000000000,29.0000000000,184.0000000000,376.0000000000,648.0000000000
1717675049353,134.0000000000,15.0000000000,29.0000000000,183.0000000000,373.0000000000,641.0000000000
1717675049353,132.0000000000,15.0000000000,29.0000000000,182.0000000000,369.0000000000,635.0000000000
1717675049354,131.0000000000,15.0000000000,56.0000000000,180.0000000000,367.0000000000,627.0000000000
1717675049354,131.0000000000,15.0000000000,55.0000000000,179.0000000000,364.0000000000,621.0000000000
1717675049354,130.0000000000,15.0000000000,54.0000000000,178.0000000000,359.0000000000,615.0000000000
1717675049355,129.0000000000,14.0000000000,54.0000000000,177.0000000000,359.0000000000,608.0000000000
1717675049355,159.0000000000,15.0000000000,54.0000000000,176.0000000000,355.0000000000,603.0000000000
1717675049355,158.0000000000,14.0000000000,53.0000000000,175.0000000000,353.0000000000,596.0000000000
1717675049355,156.0000000000,14.0000000000,52.0000000000,174.0000000000,350.0000000000,760.0000000000
1717675049356,155.0000000000,14.0000000000,52.0000000000,172.0000000000,347.0000000000,748.0000000000
1717675049356,154.0000000000,14.0000000000,52.0000000000,171.0000000000,344.0000000000,738.0000000000
1717675049356,153.0000000000,14.0000000000,51.0000000000,171.0000000000,342.0000000000,728.0000000000
1717675049356,152.0000000000,14.0000000000,50.0000000000,169.0000000000,339.0000000000,721.0000000000
1717675049357,151.0000000000,14.0000000000,51.0000000000,167.0000000000,337.0000000000,713.0000000000
1717675049358,150.0000000000,14.0000000000,50.0000000000,167.0000000000,334.0000000000,705.0000000000
1717675049358,149.0000000000,14.0000000000,50.0000000000,167.0000000000,332.0000000000,696.0000000000
1717675049359,167.0000000000,13.0000000000,50.0000000000,166.0000000000,329.0000000000,689.0000000000
1717675049360,167.0000000000,13.0000000000,49.0000000000,249.0000000000,327.0000000000,681.0000000000
1717675049360,165.0000000000,13.0000000000,48.0000000000,280.0000000000,325.0000000000,673.0000000000
1717675049362,163.0000000000,13.0000000000,48.0000000000,277.0000000000,323.0000000000,667.0000000000
1717675049363,163.0000000000,13.0000000000,48.0000000000,275.0000000000,321.0000000000,659.0000000000
1717675049364,162.0000000000,13.0000000000,48.0000000000,272.0000000000,319.0000000000,652.0000000000
1717675049365,161.0000000000,12.0000000000,48.0000000000,270.0000000000,316.0000000000,646.0000000000
1717675049365,159.0000000000,12.0000000000,48.0000000000,268.0000000000,314.0000000000,639.0000000000
1717675049365,158.0000000000,12.0000000000,47.0000000000,266.0000000000,312.0000000000,632.0000000000
1717675049366,157.0000000000,12.0000000000,47.0000000000,263.0000000000,310.0000000000,625.0000000000
1717675049367,156.0000000000,12.0000000000,46.0000000000,262.0000000000,308.0000000000,620.0000000000
1717675049368,155.0000000000,12.0000000000,46.0000000000,260.0000000000,306.0000000000,615.0000000000
1717675049369,153.0000000000,12.0000000000,46.0000000000,258.0000000000,304.0000000000,608.0000000000
1717675049369,152.0000000000,12.0000000000,46.0000000000,255.0000000000,302.0000000000,603.0000000000
1717675049370,152.0000000000,12.0000000000,45.0000000000,255.0000000000,300.0000000000,596.0000000000
1717675049371,152.0000000000,12.0000000000,45.0000000000,253.0000000000,298.0000000000,591.0000000000
1717675049372,150.0000000000,12.0000000000,45.0000000000,251.0000000000,295.0000000000,585.0000000000
1717675049374,149.0000000000,12.0000000000,44.0000000000,249.0000000000,294.0000000000,579.0000000000
1717675049374,147.0000000000,11.0000000000,44.0000000000,248.0000000000,293.0000000000,574.0000000000
1717675049374,147.0000000000,11.0000000000,44.0000000000,246.0000000000,291.0000000000,568.0000000000
1717675049374,145.0000000000,11.0000000000,43.0000000000,244.0000000000,289.0000000000,563.0000000000
1717675049375,163.0000000000,11.0000000000,44.0000000000,242.0000000000,287.0000000000,558.0000000000
1717675049397,164.0000000000,11.0000000000,43.0000000000,241.0000000000,286.0000000000,553.0000000000
1717675049399,163.0000000000,11.0000000000,43.0000000000,239.0000000000,284.0000000000,548.0000000000
1717675049400,162.0000000000,11.0000000000,42.0000000000,238.0000000000,282.0000000000,543.0000000000
1717675049400,161.0000000000,11.0000000000,42.0000000000,236.0000000000,280.0000000000,540.0000000000
1717675049400,159.0000000000,11.0000000000,41.0000000000,235.0000000000,279.0000000000,557.0000000000
1717675049400,159.0000000000,12.0000000000,71.0000000000,232.0000000000,276.0000000000,551.0000000000
1717675049401,158.0000000000,12.0000000000,71.0000000000,231.0000000000,275.0000000000,545.0000000000
1717675049401,156.0000000000,12.0000000000,70.0000000000,230.0000000000,273.0000000000,540.0000000000
1717675049401,156.0000000000,12.0000000000,69.0000000000,228.0000000000,271.0000000000,535.0000000000
1717675049401,155.0000000000,12.0000000000,67.0000000000,227.0000000000,270.0000000000,529.0000000000
1717675049402,154.0000000000,12.0000000000,67.0000000000,225.0000000000,268.0000000000,525.0000000000
1717675049402,152.0000000000,12.0000000000,67.0000000000,224.0000000000,267.0000000000,519.0000000000
1717675049402,152.0000000000,12.0000000000,67.0000000000,222.0000000000,265.0000000000,516.0000000000
1717675049403,151.0000000000,12.0000000000,66.0000000000,220.0000000000,299.0000000000,511.0000000000
1717675049445,150.0000000000,11.0000000000,66.0000000000,220.0000000000,295.0000000000,507.0000000000
1717675049446,148.0000000000,11.0000000000,66.0000000000,217.0000000000,294.0000000000,503.0000000000
1717675049447,147.0000000000,12.0000000000,65.0000000000,216.0000000000,291.0000000000,499.0000000000
1717675049447,147.0000000000,11.0000000000,65.0000000000,215.0000000000,363.0000000000,496.0000000000
1717675049447,146.0000000000,11.0000000000,63.0000000000,214.0000000000,359.0000000000,492.0000000000
1717675049447,145.0000000000,11.0000000000,63.0000000000,212.0000000000,356.0000000000,487.0000000000
1717675049448,145.0000000000,11.0000000000,63.0000000000,211.0000000000,353.0000000000,483.0000000000
1717675049448,143.0000000000,11.0000000000,63.0000000000,209.0000000000,351.0000000000,480.0000000000
1717675049448,143.0000000000,11.0000000000,63.0000000000,208.0000000000,348.0000000000,476.0000000000
1717675049449,142.0000000000,11.0000000000,62.0000000000,207.0000000000,345.0000000000,472.0000000000
1717675049449,142.0000000000,10.0000000000,62.0000000000,206.0000000000,343.0000000000,468.0000000000
1717675049450,140.0000000000,11.0000000000,61.0000000000,204.0000000000,340.0000000000,464.0000000000
1717675049450,140.0000000000,10.0000000000,61.0000000000,203.0000000000,337.0000000000,461.0000000000
1717675049450,139.0000000000,10.0000000000,60.0000000000,201.0000000000,335.0000000000,457.0000000000
1717675049451,137.0000000000,10.0000000000,60.0000000000,199.0000000000,332.0000000000,454.0000000000
1717675049451,136.0000000000,10.0000000000,60.0000000000,199.0000000000,329.0000000000,450.0000000000
1717675049451,135.0000000000,9.0000000000,60.0000000000,198.0000000000,327.0000000000,448.0000000000
1717675049451,135.0000000000,9.0000000000,59.0000000000,196.0000000000,326.0000000000,444.0000000000
1717675049452,134.0000000000,9.0000000000,59.0000000000,195.0000000000,323.0000000000,440.0000000000
1717675049452,134.0000000000,9.0000000000,58.0000000000,195.0000000000,321.0000000000,438.0000000000
1717675049452,132.0000000000,9.0000000000,58.0000000000,193.0000000000,319.0000000000,435.0000000000
1717675049453,131.0000000000,9.0000000000,57.0000000000,192.0000000000,316.0000000000,432.0000000000
1717675049453,131.0000000000,9.0000000000,56.0000000000,191.0000000000,315.0000000000,428.0000000000
1717675049453,130.0000000000,9.0000000000,56.0000000000,190.0000000000,312.0000000000,425.0000000000
1717675049453,129.0000000000,9.0000000000,56.0000000000,189.0000000000,310.0000000000,423.0000000000
1717675049454,155.0000000000,9.0000000000,56.0000000000,188.0000000000,307.0000000000,419.0000000000
1717675049489,182.0000000000,9.0000000000,56.0000000000,187.0000000000,306.0000000000,417.0000000000
1717675049489,179.0000000000,9.0000000000,56.0000000000,231.0000000000,304.0000000000,414.0000000000
1717675049489,179.0000000000,9.0000000000,56.0000000000,244.0000000000,302.0000000000,412.0000000000
1717675049490,177.0000000000,9.0000000000,55.0000000000,242.0000000000,300.0000000000,408.0000000000
1717675049490,176.0000000000,9.0000000000,54.0000000000,240.0000000000,298.0000000000,405.0000000000
1717675049490,175.0000000000,9.0000000000,54.0000000000,239.0000000000,295.0000000000,403.0000000000
1717675049490,174.0000000000,9.0000000000,54.0000000000,236.0000000000,294.0000000000,399.0000000000
1717675049490,172.0000000000,9.0000000000,54.0000000000,236.0000000000,291.0000000000,397.0000000000
1717675049490,172.0000000000,9.0000000000,53.0000000000,232.0000000000,289.0000000000,395.0000000000
1717675049490,170.0000000000,8.0000000000,53.0000000000,231.0000000000,287.0000000000,391.0000000000
1717675049491,169.0000000000,7.0000000000,52.0000000000,230.0000000000,286.0000000000,403.0000000000
1717675049491,167.0000000000,7.0000000000,52.0000000000,229.0000000000,284.0000000000,506.0000000000
1717675049491,182.0000000000,8.0000000000,52.0000000000,227.0000000000,283.0000000000,500.0000000000
1717675049491,180.0000000000,8.0000000000,51.0000000000,225.0000000000,294.0000000000,495.0000000000
1717675049491,179.0000000000,8.0000000000,51.0000000000,224.0000000000,314.0000000000,491.0000000000
1717675049491,178.0000000000,7.0000000000,51.0000000000,223.0000000000,312.0000000000,487.0000000000
1717675049491,177.0000000000,7.0000000000,50.0000000000,221.0000000000,308.0000000000,483.0000000000
1717675049492,176.0000000000,7.0000000000,51.0000000000,219.0000000000,307.0000000000,532.0000000000
1717675049492,175.0000000000,7.0000000000,51.0000000000,218.0000000000,304.0000000000,527.0000000000
1717675049492,174.0000000000,7.0000000000,51.0000000000,216.0000000000,302.0000000000,523.0000000000
1717675049492,172.0000000000,7.0000000000,51.0000000000,216.0000000000,372.0000000000,518.0000000000
1717675049492,171.0000000000,7.0000000000,50.0000000000,214.0000000000,369.0000000000,512.0000000000
1717675049509,169.0000000000,7.0000000000,50.0000000000,211.0000000000,366.0000000000,508.0000000000
1717675049510,168.0000000000,7.0000000000,50.0000000000,211.0000000000,363.0000000000,504.0000000000
1717675049510,167.0000000000,7.0000000000,49.0000000000,209.0000000000,359.0000000000,499.0000000000
1717675049510,167.0000000000,7.0000000000,49.0000000000,219.0000000000,358.0000000000,495.0000000000
1717675049510,166.0000000000,7.0000000000,48.0000000000,217.0000000000,355.0000000000,491.0000000000
1717675049510,164.0000000000,7.0000000000,48.0000000000,216.0000000000,352.0000000000,487.0000000000
1717675049511,163.0000000000,7.0000000000,48.0000000000,215.0000000000,349.0000000000,483.0000000000
1717675049511,162.0000000000,7.0000000000,48.0000000000,213.0000000000,347.0000000000,478.0000000000
1717675049528,161.0000000000,7.0000000000,48.0000000000,211.0000000000,344.0000000000,473.0000000000
1717675049529,160.0000000000,7.0000000000,48.0000000000,210.0000000000,342.0000000000,472.0000000000
1717675049530,159.0000000000,7.0000000000,47.0000000000,208.0000000000,339.0000000000,467.0000000000
1717675049530,158.0000000000,7.0000000000,47.0000000000,207.0000000000,335.0000000000,463.0000000000
1717675049530,157.0000000000,7.0000000000,47.0000000000,206.0000000000,335.0000000000,459.0000000000
1717675049530,156.0000000000,7.0000000000,46.0000000000,204.0000000000,332.0000000000,526.0000000000
1717675049530,155.0000000000,7.0000000000,46.0000000000,204.0000000000,329.0000000000,521.0000000000
1717675049531,155.0000000000,7.0000000000,46.0000000000,201.0000000000,327.0000000000,515.0000000000
1717675049531,153.0000000000,7.0000000000,46.0000000000,200.0000000000,325.0000000000,511.0000000000
1717675049531,152.0000000000,7.0000000000,45.0000000000,199.0000000000,323.0000000000,505.0000000000
1717675049532,151.0000000000,7.0000000000,44.0000000000,198.0000000000,319.0000000000,502.0000000000
1717675049547,151.0000000000,7.0000000000,44.0000000000,197.0000000000,318.0000000000,497.0000000000
1717675049547,150.0000000000,7.0000000000,44.0000000000,195.0000000000,316.0000000000,492.0000000000
1717675049547,148.0000000000,7.0000000000,44.0000000000,194.0000000000,315.0000000000,524.0000000000
1717675049547,148.0000000000,7.0000000000,44.0000000000,193.0000000000,312.0000000000,632.0000000000
1717675049548,147.0000000000,7.0000000000,44.0000000000,192.0000000000,310.0000000000,624.0000000000
1717675049548,145.0000000000,7.0000000000,44.0000000000,191.0000000000,307.0000000000,616.0000000000
1717675049548,145.0000000000,7.0000000000,44.0000000000,190.0000000000,416.0000000000,609.0000000000
1717675049548,143.0000000000,6.0000000000,42.0000000000,189.0000000000,412.0000000000,605.0000000000
1717675049548,143.0000000000,7.0000000000,42.0000000000,188.0000000000,408.0000000000,599.0000000000
1717675049563,143.0000000000,7.0000000000,43.0000000000,187.0000000000,406.0000000000,591.0000000000
1717675049564,142.0000000000,6.0000000000,41.0000000000,185.0000000000,402.0000000000,585.0000000000
1717675049564,140.0000000000,6.0000000000,42.0000000000,184.0000000000,399.0000000000,581.0000000000
1717675049564,142.0000000000,6.0000000000,41.0000000000,184.0000000000,396.0000000000,575.0000000000
1717675049564,142.0000000000,6.0000000000,41.0000000000,182.0000000000,392.0000000000,569.0000000000
1717675049564,140.0000000000,6.0000000000,41.0000000000,183.0000000000,390.0000000000,564.0000000000
1717675049564,140.0000000000,6.0000000000,39.0000000000,182.0000000000,386.0000000000,560.0000000000
1717675049564,139.0000000000,6.0000000000,40.0000000000,180.0000000000,384.0000000000,555.0000000000
1717675049565,137.0000000000,6.0000000000,39.0000000000,179.0000000000,381.0000000000,549.0000000000
1717675049566,137.0000000000,6.0000000000,39.0000000000,178.0000000000,377.0000000000,543.0000000000
1717675049566,135.0000000000,6.0000000000,39.0000000000,177.0000000000,376.0000000000,540.0000000000
1717675049581,135.0000000000,6.0000000000,39.0000000000,176.0000000000,371.0000000000,536.0000000000
1717675049582,135.0000000000,6.0000000000,39.0000000000,176.0000000000,369.0000000000,530.0000000000
1717675049582,134.0000000000,6.0000000000,39.0000000000,174.0000000000,368.0000000000,525.0000000000
1717675049582,142.0000000000,6.0000000000,39.0000000000,172.0000000000,364.0000000000,521.0000000000
1717675049582,140.0000000000,5.0000000000,39.0000000000,172.0000000000,361.0000000000,517.0000000000
1717675049582,140.0000000000,6.0000000000,39.0000000000,171.0000000000,359.0000000000,512.0000000000
1717675049582,139.0000000000,6.0000000000,38.0000000000,170.0000000000,356.0000000000,508.0000000000
1717675049582,139.0000000000,6.0000000000,38.0000000000,169.0000000000,383.0000000000,504.0000000000
1717675049582,137.0000000000,5.0000000000,37.0000000000,167.0000000000,379.0000000000,500.0000000000
1717675049596,135.0000000000,5.0000000000,37.0000000000,167.0000000000,376.0000000000,496.0000000000
1717675049597,135.0000000000,6.0000000000,37.0000000000,166.0000000000,374.0000000000,492.0000000000
1717675049597,135.0000000000,5.0000000000,37.0000000000,165.0000000000,370.0000000000,487.0000000000
1717675049597,134.0000000000,6.0000000000,36.0000000000,164.0000000000,368.0000000000,484.0000000000
1717675049597,133.0000000000,5.0000000000,36.0000000000,163.0000000000,364.0000000000,480.0000000000
1717675049597,131.0000000000,5.0000000000,36.0000000000,162.0000000000,361.0000000000,476.0000000000
1717675049611,131.0000000000,4.0000000000,35.0000000000,177.0000000000,359.0000000000,472.0000000000
1717675049612,130.0000000000,5.0000000000,35.0000000000,236.0000000000,356.0000000000,470.0000000000
1717675049612,130.0000000000,5.0000000000,35.0000000000,233.0000000000,353.0000000000,465.0000000000
1717675049612,129.0000000000,5.0000000000,35.0000000000,231.0000000000,352.0000000000,462.0000000000
1717675049612,127.0000000000,4.0000000000,35.0000000000,231.0000000000,349.0000000000,458.0000000000
1717675049612,127.0000000000,5.0000000000,35.0000000000,229.0000000000,346.0000000000,455.0000000000
1717675049612,127.0000000000,5.0000000000,35.0000000000,227.0000000000,344.0000000000,451.0000000000
1717675049612,126.0000000000,4.0000000000,35.0000000000,225.0000000000,342.0000000000,448.0000000000
1717675049612,125.0000000000,5.0000000000,35.0000000000,224.0000000000,339.0000000000,444.0000000000
1717675049627,124.0000000000,4.0000000000,34.0000000000,222.0000000000,337.0000000000,441.0000000000
1717675049628,144.0000000000,4.0000000000,33.0000000000,221.0000000000,335.0000000000,439.0000000000
1717675049628,158.0000000000,4.0000000000,33.0000000000,220.0000000000,332.0000000000,435.0000000000
1717675049628,157.0000000000,4.0000000000,34.0000000000,217.0000000000,331.0000000000,432.0000000000
1717675049629,156.0000000000,4.0000000000,33.0000000000,216.0000000000,327.0000000000,428.0000000000
1717675049629,155.0000000000,4.0000000000,33.0000000000,216.0000000000,326.0000000000,425.0000000000
1717675049629,153.0000000000,4.0000000000,33.0000000000,214.0000000000,323.0000000000,503.0000000000
1717675049629,153.0000000000,4.0000000000,33.0000000000,212.0000000000,322.0000000000,497.0000000000
1717675049630,152.0000000000,4.0000000000,34.0000000000,211.0000000000,319.0000000000,492.0000000000
1717675049643,151.0000000000,4.0000000000,34.0000000000,209.0000000000,318.0000000000,488.0000000000
1717675049644,150.0000000000,4.0000000000,33.0000000000,207.0000000000,316.0000000000,483.0000000000
1717675049644,148.0000000000,4.0000000000,33.0000000000,207.0000000000,313.0000000000,480.0000000000
1717675049644,147.0000000000,4.0000000000,33.0000000000,205.0000000000,312.0000000000,475.0000000000
1717675049644,147.0000000000,3.0000000000,33.0000000000,204.0000000000,309.0000000000,472.0000000000
1717675049644,146.0000000000,4.0000000000,33.0000000000,203.0000000000,307.0000000000,467.0000000000
1717675049644,144.0000000000,4.0000000000,33.0000000000,201.0000000000,305.0000000000,463.0000000000
1717675049645,143.0000000000,4.0000000000,33.0000000000,199.0000000000,304.0000000000,460.0000000000
1717675049645,143.0000000000,4.0000000000,31.0000000000,199.0000000000,302.0000000000,456.0000000000
1717675049662,142.0000000000,4.0000000000,32.0000000000,197.0000000000,300.0000000000,452.0000000000
1717675049662,141.0000000000,4.0000000000,32.0000000000,196.0000000000,312.0000000000,448.0000000000
1717675049662,140.0000000000,4.0000000000,31.0000000000,195.0000000000,310.0000000000,444.0000000000
1717675049663,140.0000000000,4.0000000000,31.0000000000,194.0000000000,307.0000000000,441.0000000000
1717675049663,143.0000000000,4.0000000000,31.0000000000,193.0000000000,304.0000000000,438.0000000000
1717675049663,142.0000000000,4.0000000000,31.0000000000,192.0000000000,303.0000000000,434.0000000000
1717675049663,140.0000000000,4.0000000000,31.0000000000,190.0000000000,300.0000000000,431.0000000000
1717675049663,140.0000000000,3.0000000000,31.0000000000,190.0000000000,298.0000000000,428.0000000000
1717675049680,139.0000000000,3.0000000000,31.0000000000,188.0000000000,295.0000000000,423.0000000000
1717675049681,137.0000000000,3.0000000000,31.0000000000,187.0000000000,295.0000000000,421.0000000000
1717675049681,135.0000000000,3.0000000000,31.0000000000,185.0000000000,292.0000000000,417.0000000000
1717675049681,135.0000000000,4.0000000000,31.0000000000,184.0000000000,291.0000000000,415.0000000000
1717675049682,135.0000000000,3.0000000000,30.0000000000,184.0000000000,288.0000000000,412.0000000000
1717675049682,134.0000000000,3.0000000000,30.0000000000,182.0000000000,287.0000000000,408.0000000000
1717675049682,134.0000000000,3.0000000000,30.0000000000,181.0000000000,285.0000000000,406.0000000000
1717675049683,132.0000000000,3.0000000000,29.0000000000,179.0000000000,284.0000000000,403.0000000000
1717675049683,131.0000000000,3.0000000000,29.0000000000,179.0000000000,281.0000000000,400.0000000000
1717675049683,131.0000000000,3.0000000000,29.0000000000,178.0000000000,280.0000000000,398.0000000000
1717675049683,130.0000000000,3.0000000000,29.0000000000,177.0000000000,279.0000000000,395.0000000000
1717675049700,129.0000000000,3.0000000000,28.0000000000,176.0000000000,277.0000000000,391.0000000000
1717675049700,127.0000000000,3.0000000000,29.0000000000,175.0000000000,275.0000000000,390.0000000000
1717675049701,127.0000000000,3.0000000000,29.0000000000,174.0000000000,273.0000000000,387.0000000000
1717675049701,127.0000000000,3.0000000000,28.0000000000,172.0000000000,271.0000000000,384.0000000000
1717675049701,126.0000000000,3.0000000000,28.0000000000,172.0000000000,270.0000000000,382.0000000000
1717675049701,125.0000000000,3.0000000000,28.0000000000,171.0000000000,268.0000000000,380.0000000000
1717675049701,124.0000000000,3.0000000000,28.0000000000,169.0000000000,267.0000000000,376.0000000000
1717675049701,124.0000000000,3.0000000000,28.0000000000,167.0000000000,265.0000000000,374.0000000000
1717675049701,124.0000000000,3.0000000000,28.0000000000,167.0000000000,263.0000000000,371.0000000000
1717675049702,123.0000000000,3.0000000000,27.0000000000,167.0000000000,262.0000000000,369.0000000000
1717675049702,121.0000000000,3.0000000000,28.0000000000,166.0000000000,260.0000000000,367.0000000000
1717675049717,121.0000000000,3.0000000000,27.0000000000,164.0000000000,259.0000000000,364.0000000000
1717675049717,120.0000000000,3.0000000000,27.0000000000,164.0000000000,258.0000000000,363.0000000000
1717675049717,120.0000000000,3.0000000000,27.0000000000,179.0000000000,255.0000000000,359.0000000000
1717675049717,119.0000000000,3.0000000000,27.0000000000,177.0000000000,255.0000000000,358.0000000000
1717675049717,119.0000000000,3.0000000000,27.0000000000,176.0000000000,307.0000000000,355.0000000000
1717675049717,131.0000000000,3.0000000000,27.0000000000,175.0000000000,315.0000000000,353.0000000000
1717675049718,129.0000000000,3.0000000000,26.0000000000,174.0000000000,312.0000000000,352.0000000000
1717675049718,129.0000000000,3.0000000000,26.0000000000,173.0000000000,310.0000000000,349.0000000000
1717675049718,127.0000000000,3.0000000000,25.0000000000,171.0000000000,307.0000000000,347.0000000000
1717675049733,127.0000000000,3.0000000000,26.0000000000,171.0000000000,305.0000000000,344.0000000000
1717675049733,127.0000000000,3.0000000000,25.0000000000,169.0000000000,304.0000000000,344.0000000000
1717675049733,126.0000000000,3.0000000000,25.0000000000,167.0000000000,301.0000000000,340.0000000000
1717675049733,125.0000000000,3.0000000000,24.0000000000,167.0000000000,299.0000000000,339.0000000000
1717675049734,124.0000000000,3.0000000000,25.0000000000,166.0000000000,296.0000000000,335.0000000000
1717675049734,123.0000000000,3.0000000000,24.0000000000,164.0000000000,295.0000000000,335.0000000000
1717675049734,122.0000000000,3.0000000000,24.0000000000,163.0000000000,292.0000000000,332.0000000000
1717675049734,121.0000000000,3.0000000000,24.0000000000,163.0000000000,290.0000000000,331.0000000000
1717675049734,120.0000000000,3.0000000000,25.0000000000,162.0000000000,288.0000000000,327.0000000000
1717675049747,120.0000000000,2.0000000000,24.0000000000,161.0000000000,287.0000000000,327.0000000000
1717675049749,120.0000000000,2.0000000000,24.0000000000,159.0000000000,284.0000000000,324.0000000000
1717675049749,119.0000000000,3.0000000000,24.0000000000,159.0000000000,283.0000000000,323.0000000000
